  -1.4358700e+01  -9.1902000e+00   1.2517810e+01
  -1.4572500e+01  -9.7680000e+00   1.3603310e+01
  -1.4825800e+01  -1.0334800e+01   1.4810110e+01
  -1.5678200e+01  -9.2873000e+00   1.4373710e+01
  -1.5851400e+01  -9.9256000e+00   1.5607810e+01
  -1.5443700e+01  -8.6704000e+00   1.3185110e+01
  -1.5015600e+01  -8.1413000e+00   1.1938610e+01
  -1.7683700e+01  -8.3397000e+00   1.5938210e+01
  -1.6702700e+01  -8.8209000e+00   1.5160210e+01
  -1.6507400e+01  -8.1732000e+00   1.3949210e+01
  -1.3701400e+01  -1.0686700e+01   1.3885710e+01
  -1.2600700e+01  -1.1151300e+01   1.3267810e+01
  -1.3086200e+01  -1.2205800e+01   1.5596810e+01
  -1.2871500e+01  -1.1696400e+01   1.4461510e+01
  -1.3969700e+01  -1.1272300e+01   1.5169010e+01
  -1.2944800e+01  -8.7300000e+00   1.0271410e+01
  -1.4019300e+01  -7.9986000e+00   1.0567010e+01
  -1.2654000e+01  -9.7196000e+00   1.1249510e+01
  -1.3771900e+01  -8.9306000e+00   1.1460010e+01
  -1.3350400e+01  -1.0082900e+01   1.2549210e+01
  -1.1421700e+01  -1.0358900e+01   1.0826010e+01
  -1.1808800e+01  -9.4255000e+00   9.9690100e+00
  -1.2261500e+01  -8.3622000e+00   9.1122100e+00
  -1.0990800e+01  -9.1519000e+00   8.8336100e+00
  -1.1505900e+01  -8.1097000e+00   8.0943600e+00
  -1.0184500e+01  -1.1021500e+01   1.0551010e+01
  -9.7600000e+00  -1.1950700e+01   1.1520210e+01
  -1.0276700e+01  -8.7585000e+00   7.7355300e+00
  -1.0535100e+01  -1.0109300e+01   9.6269100e+00
  -9.6236000e+00  -9.8496000e+00   8.4903700e+00
  -1.1103600e+01  -1.3176900e+01   1.4882710e+01
  -1.2100200e+01  -1.2952500e+01   1.5658010e+01
  -1.2129900e+01  -1.0710200e+01   1.2072110e+01
  -1.1818900e+01  -1.2316700e+01   1.4230710e+01
  -1.1500400e+01  -1.1788800e+01   1.3020010e+01
  -1.1038200e+01  -1.3870900e+01   1.6061010e+01
  -1.0066900e+01  -1.3890700e+01   1.5023810e+01
  -1.0500200e+01  -1.2901100e+01   1.3760010e+01
  -1.0972500e+01  -1.1305800e+01   1.1729810e+01
  -1.0430800e+01  -1.2228000e+01   1.2595810e+01
  -1.6953200e+01  -1.0112200e+01   1.7628010e+01
  -1.7925000e+01  -9.6458000e+00   1.8444410e+01
  -1.8763200e+01  -8.4929000e+00   1.7975410e+01
  -1.6845400e+01  -9.4808000e+00   1.6392910e+01
  -1.7821200e+01  -9.0007000e+00   1.7187710e+01
  -1.5043200e+01  -1.2370800e+01   1.8687410e+01
  -1.5034600e+01  -1.1675000e+01   1.7380110e+01
  -1.4964900e+01  -1.0991600e+01   1.6079510e+01
  -1.6026100e+01  -1.1198200e+01   1.8059310e+01
  -1.5952700e+01  -1.0574600e+01   1.6841410e+01
  -1.7977100e+01  -1.0295100e+01   1.9702810e+01
  -1.8889700e+01  -9.7850000e+00   2.0450810e+01
  -2.0471700e+01  -8.3998000e+00   2.1112310e+01
  -1.8858200e+01  -9.1369000e+00   1.9231410e+01
  -1.9770600e+01  -8.6307000e+00   2.0085210e+01
  -1.6056500e+01  -1.1790100e+01   1.9208210e+01
  -1.6026400e+01  -1.2356000e+01   2.0266510e+01
  -1.7045800e+01  -1.1366800e+01   2.0069110e+01
  -1.7023300e+01  -1.0739000e+01   1.8853910e+01
  -1.7924400e+01  -1.0998400e+01   2.0955210e+01
  -1.0905700e+01  -1.4581300e+01   1.7257210e+01
  -1.0802500e+01  -1.5242900e+01   1.8456510e+01
  -9.8987000e+00  -1.4671300e+01   1.6279810e+01
  -9.7599000e+00  -1.5394700e+01   1.7533210e+01
  -9.7087000e+00  -1.6067900e+01   1.8849310e+01
  -1.1795800e+01  -1.5130200e+01   1.9500910e+01
  -1.2613600e+01  -1.5057500e+01   2.0495510e+01
  -9.9719000e+00  -1.6618500e+01   2.0347410e+01
  -1.0728300e+01  -1.5850300e+01   1.9632410e+01
  -1.1359000e+01  -1.5987500e+01   2.0753210e+01
  -1.4049400e+01  -1.2656300e+01   1.7733410e+01
  -1.4064400e+01  -1.1955800e+01   1.6475910e+01
  -1.3056100e+01  -1.2892600e+01   1.6782810e+01
  -1.2992400e+01  -1.3591600e+01   1.8015410e+01
  -1.2019700e+01  -1.3721700e+01   1.6972110e+01
  -1.3980800e+01  -1.3354700e+01   1.8975310e+01
  -1.4914800e+01  -1.3119700e+01   1.9964610e+01
  -1.3774300e+01  -1.4102600e+01   2.0200010e+01
  -1.1909100e+01  -1.4437800e+01   1.8227910e+01
  -1.2870100e+01  -1.4292000e+01   1.9248510e+01
  -1.5566700e+01  -6.2377000e+00   1.0400710e+01
  -1.5051000e+01  -5.6233000e+00   9.1939100e+00
  -1.4440300e+01  -5.1290000e+00   8.0797800e+00
  -1.4503300e+01  -6.8502000e+00   9.8130100e+00
  -1.3942300e+01  -6.4208000e+00   8.7518100e+00
  -1.7603500e+01  -5.1584000e+00   1.1904910e+01
  -1.6975500e+01  -6.3600000e+00   1.2339210e+01
  -1.4994100e+01  -7.3548000e+00   1.0945510e+01
  -1.6578400e+01  -5.7179000e+00   1.1128210e+01
  -1.5957100e+01  -6.9133000e+00   1.1626910e+01
  -1.6545500e+01  -3.9107000e+00   9.4464100e+00
  -1.5762000e+01  -3.0864000e+00   7.9549200e+00
  -1.4923900e+01  -2.8087000e+00   6.9028100e+00
  -1.5547800e+01  -4.3207000e+00   8.6232100e+00
  -1.4667000e+01  -4.0239000e+00   7.4445700e+00
  -1.8122800e+01  -3.9367000e+00   1.1446510e+01
  -1.9123500e+01  -3.2937000e+00   1.2275110e+01
  -1.7544300e+01  -3.2881000e+00   1.0175310e+01
  -1.6080500e+01  -5.0706000e+00   9.8783100e+00
  -1.7122800e+01  -4.5229000e+00   1.0666710e+01
  -1.1420500e+01  -4.8091000e+00   5.0577600e+00
  -1.2726600e+01  -4.2104000e+00   5.7323800e+00
  -1.3123800e+01  -2.8991000e+00   5.2832800e+00
  -1.1939700e+01  -3.6237000e+00   4.7152000e+00
  -1.1069200e+01  -3.0830000e+00   3.7821500e+00
  -1.0755900e+01  -5.9465000e+00   5.3884700e+00
  -1.0083900e+01  -7.1307000e+00   5.8945500e+00
  -9.8578000e+00  -3.4646000e+00   3.1669000e+00
  -1.0631200e+01  -4.2448000e+00   4.1017100e+00
  -1.0063000e+01  -5.3746000e+00   4.4387500e+00
  -1.2755300e+01  -7.1469000e+00   8.2619100e+00
  -1.3379000e+01  -7.5977000e+00   9.3912100e+00
  -1.3856400e+01  -3.5708000e+00   6.3361300e+00
  -1.3445300e+01  -5.9138000e+00   7.7467800e+00
  -1.3457700e+01  -4.8380000e+00   6.8538100e+00
  -1.1856000e+01  -7.1150000e+00   7.3696200e+00
  -1.0711000e+01  -7.7048000e+00   6.9605200e+00
  -1.1324800e+01  -6.5357000e+00   6.3540500e+00
  -1.2118700e+01  -5.3687000e+00   6.0495700e+00
  -1.2538900e+01  -6.0676000e+00   7.0136300e+00
  -2.1772400e+01  -4.9315000e+00   1.8453210e+01
  -2.1143200e+01  -4.6961000e+00   1.6935610e+01
  -2.2461700e+01  -2.8132000e+00   1.7297210e+01
  -2.2074100e+01  -3.9067000e+00   1.7762110e+01
  -2.1652400e+01  -3.4241000e+00   1.6423410e+01
  -2.0388800e+01  -6.8448000e+00   1.8413310e+01
  -2.0232800e+01  -6.1065000e+00   1.7083010e+01
  -2.0537500e+01  -3.2490000e+00   1.4336410e+01
  -2.0985600e+01  -5.6756000e+00   1.7893610e+01
  -2.0829300e+01  -4.0097000e+00   1.5588010e+01
  -2.2995900e+01  -4.5124000e+00   2.0495310e+01
  -2.2500600e+01  -5.6612000e+00   2.1034210e+01
  -2.3410700e+01  -3.3827000e+00   1.9952410e+01
  -2.2632500e+01  -4.0580000e+00   1.9096110e+01
  -2.3039200e+01  -2.8383000e+00   1.8499310e+01
  -2.1152000e+01  -7.4483000e+00   2.0913010e+01
  -2.0600100e+01  -7.4238000e+00   1.9724210e+01
  -2.1628200e+01  -6.4366000e+00   2.0303510e+01
  -2.1262300e+01  -6.1663000e+00   1.9127210e+01
  -2.2167300e+01  -5.2641000e+00   1.9713010e+01
  -1.9282000e+01  -5.8476000e+00   1.5123310e+01
  -1.9386700e+01  -6.6183000e+00   1.6281410e+01
  -1.9681100e+01  -7.9909000e+00   1.8838210e+01
  -1.8625600e+01  -7.8340000e+00   1.6723710e+01
  -1.9540200e+01  -7.3215000e+00   1.7539110e+01
  -1.8608700e+01  -4.5423000e+00   1.2682110e+01
  -1.9593300e+01  -3.9107000e+00   1.3508210e+01
  -2.0221400e+01  -5.2776000e+00   1.5994010e+01
  -1.8989200e+01  -5.1872000e+00   1.3900110e+01
  -1.9945100e+01  -4.5807000e+00   1.4726510e+01
  -1.7271300e+01  -7.0083000e+00   1.3512210e+01
  -1.6193500e+01  -7.5758000e+00   1.2738510e+01
  -1.7522200e+01  -7.6600000e+00   1.4718410e+01
  -1.8297800e+01  -6.4400000e+00   1.4314110e+01
  -1.8482900e+01  -7.1376000e+00   1.5497210e+01
  -1.7997000e+01  -5.7900000e+00   1.3114810e+01
  -9.8243000e+00  -3.5416000e+00   1.7799410e+01
  -1.0217700e+01  -3.8723000e+00   1.9150210e+01
  -1.1212300e+01  -3.1940000e+00   1.9925510e+01
  -1.0516000e+01  -4.1925000e+00   2.0469610e+01
  -9.5774000e+00  -4.9083000e+00   2.0291710e+01
  -1.7900500e+01  -2.0499000e+00   9.7618100e+00
  -1.8214700e+01  -5.9200000e-01   9.3137100e+00
  -1.8917900e+01   7.9350000e-01   9.5337100e+00
  -1.7297000e+01  -4.3540000e-01   8.1775500e+00
  -1.8025600e+01   7.3850000e-01   8.5148100e+00
  -1.6772500e+01  -2.7936000e+00   8.8962100e+00
  -1.6319000e+01  -1.8016000e+00   7.7903300e+00
  -1.6355600e+01  -5.2300000e-01   7.2081200e+00
  -1.7279500e+01  -1.5735000e+00   8.7351100e+00
  -1.7073300e+01   7.5510000e-01   7.4699200e+00
  -2.0301300e+01  -1.4186000e+00   1.2509410e+01
  -2.0107900e+01  -2.6111000e+00   1.3109510e+01
  -2.1412900e+01   5.6520000e-01   1.2974810e+01
  -2.0541000e+01   1.8900000e-02   1.2005210e+01
  -1.9939800e+01   7.9590000e-01   1.0816210e+01
  -1.9437800e+01  -2.0698000e+00   1.1757710e+01
  -1.8517200e+01  -2.7163000e+00   1.0993110e+01
  -1.8815100e+01  -1.4433000e+00   1.0526510e+01
  -1.9154300e+01  -1.9630000e-01   1.0273410e+01
  -1.9755000e+01  -7.3110000e-01   1.1331710e+01
  -2.2822300e+01  -8.4960000e-01   1.6190110e+01
  -2.2240600e+01  -2.0949000e+00   1.6180110e+01
  -2.1064300e+01  -1.8492000e+00   1.3972710e+01
  -2.1981100e+01  -1.2918000e+00   1.5049410e+01
  -2.1397900e+01  -2.6385000e+00   1.5200510e+01
  -2.4442800e+01  -1.1873000e+00   1.9850710e+01
  -2.4222500e+01  -2.4694000e+00   2.0743610e+01
  -2.3785600e+01  -2.2732000e+00   1.9498710e+01
  -2.3049500e+01  -1.7034000e+00   1.7358610e+01
  -2.3720200e+01  -1.4707000e+00   1.8521410e+01
  -2.3636600e+01  -5.2130000e-01   1.7493810e+01
  -2.3437900e+01   3.0810000e-01   1.6503910e+01
  -2.1057400e+01  -7.2100000e-01   1.3167610e+01
  -2.2630800e+01   1.5580000e-01   1.5160610e+01
  -2.1818000e+01  -3.5330000e-01   1.4127610e+01
  -2.5087800e+01  -5.4990000e-01   2.0761010e+01
  -2.5667100e+01   6.6610000e-01   2.1071410e+01
  -2.4987900e+01   2.5660000e-01   1.9788110e+01
  -2.4332100e+01  -2.2680000e-01   1.8705810e+01
  -2.4184500e+01   7.6030000e-01   1.7647010e+01
  -1.9512900e+01   1.9413000e+00   9.8529100e+00
  -1.8639400e+01   2.0499000e+00   8.7846100e+00
  -1.6250200e+01   3.0315000e+00   6.2272400e+00
  -1.7711100e+01   2.0413000e+00   7.7837600e+00
  -1.6746100e+01   1.9724000e+00   6.8313900e+00
  -2.1199200e+01   2.7346000e+00   1.1782910e+01
  -2.1960300e+01   3.2398000e+00   1.2729710e+01
  -2.0893600e+01   1.3378000e+00   1.1852610e+01
  -1.9946400e+01   3.2261000e+00   1.0043610e+01
  -2.0388400e+01   2.1794000e+00   1.0862410e+01
  -1.8250700e+01   3.3509000e+00   8.1048200e+00
  -1.8903500e+01   4.6135000e+00   8.6794100e+00
  -1.6978800e+01   4.7213000e+00   6.8100300e+00
  -1.7906800e+01   4.6707000e+00   7.6683500e+00
  -1.7257600e+01   3.3626000e+00   7.1212000e+00
  -2.1462000e+01   4.1938000e+00   1.1805210e+01
  -2.2218900e+01   4.6879000e+00   1.2787810e+01
  -2.0689500e+01   3.7204000e+00   1.0860310e+01
  -1.9170900e+01   3.3304000e+00   9.1070100e+00
  -1.9902100e+01   4.6397000e+00   9.7784100e+00
  -2.4696800e+01   2.1284000e+00   1.7833910e+01
  -2.4861100e+01   1.1665000e+00   1.8780710e+01
  -2.5508600e+01   1.5387000e+00   1.9987910e+01
  -2.5372900e+01   2.5172000e+00   1.9039110e+01
  -2.6125400e+01   1.9123000e+00   2.1200210e+01
  -2.5127700e+01   3.4574000e+00   1.8049610e+01
  -2.4826300e+01   4.3743000e+00   1.7110310e+01
  -2.6390900e+01   4.1732000e+00   2.0473510e+01
  -2.6018700e+01   2.8662000e+00   2.0296810e+01
  -2.5797000e+01   3.8433000e+00   1.9291210e+01
  -2.2237700e+01   1.0148000e+00   1.4017410e+01
  -2.1756500e+01   1.8791000e+00   1.2892210e+01
  -2.3303600e+01   1.2190000e+00   1.5710010e+01
  -2.2959800e+01   1.8664000e+00   1.4778110e+01
  -2.4000100e+01   1.7306000e+00   1.6701110e+01
  -2.2548600e+01   2.5164000e+00   1.3851410e+01
  -2.2671400e+01   3.7873000e+00   1.3650810e+01
  -2.3320200e+01   3.5644000e+00   1.4735610e+01
  -2.3668600e+01   2.6432000e+00   1.5657210e+01
  -2.4410200e+01   3.0599000e+00   1.6823010e+01
  -2.4080100e+01   4.0098000e+00   1.5883210e+01
  -1.3335200e+01  -1.4547000e+00   4.7816000e+00
  -1.4537900e+01  -1.0464000e+00   5.6533200e+00
  -1.4167800e+01  -2.2392000e+00   5.8581400e+00
  -1.5447700e+01  -3.7180000e-01   6.2345400e+00
  -1.5402500e+01  -1.6426000e+00   6.7450900e+00
  -1.2923300e+01  -4.0000000e-02   4.0416400e+00
  -1.3744000e+01   9.9900000e-01   4.4468900e+00
  -1.6078100e+01   7.6410000e-01   6.4774200e+00
  -1.3966100e+01  -2.1730000e-01   4.8936600e+00
  -1.4914500e+01   6.1800000e-01   5.4732900e+00
  -1.0189700e+01  -2.2923000e+00   2.8698900e+00
  -9.6382000e+00  -1.2825000e+00   2.2523900e+00
  -1.2320100e+01  -2.3501000e+00   4.3590400e+00
  -1.1394300e+01  -1.9464000e+00   3.5171300e+00
  -1.2232800e+01  -1.0402000e+00   3.7985700e+00
  -1.0903900e+01  -1.0229000e+00   2.9049500e+00
  -1.0466400e+01   5.3400000e-02   2.4423100e+00
  -1.1682200e+01   1.1830000e-01   3.1549100e+00
  -9.7896000e+00   9.7610000e-01   1.2922710e+01
  -9.6952000e+00  -3.3260000e-01   1.3669610e+01
  -1.1490700e+01  -9.8790000e-01   1.7077210e+01
  -1.0800800e+01  -2.1822000e+00   1.7361510e+01
  -9.6155000e+00  -1.4642000e+00   1.4600110e+01
  -1.0432900e+01  -1.5786000e+00   1.5956410e+01
  -9.9362000e+00  -2.7142000e+00   1.6648410e+01
  -1.2756900e+01  -1.4974000e+00   2.0540510e+01
  -1.2046800e+01  -2.6647000e+00   2.0879610e+01
  -1.0921900e+01  -2.7887000e+00   1.8572510e+01
  -1.1721100e+01  -1.5593000e+00   1.8281810e+01
  -1.1906400e+01  -2.1027000e+00   1.9526010e+01
  -1.2161900e+01   4.9870000e-01   1.6719310e+01
  -1.1376700e+01   5.8110000e-01   1.5306610e+01
  -1.0550800e+01   6.5720000e-01   1.4059110e+01
  -1.1261500e+01  -4.3040000e-01   1.6040010e+01
  -1.0494000e+01  -5.0430000e-01   1.4894610e+01
  -1.3916000e+01   8.8680000e-01   2.0018410e+01
  -1.3381200e+01  -3.2450000e-01   2.0289810e+01
  -1.3186900e+01   3.2330000e-01   1.8961310e+01
  -1.2583600e+01  -9.0860000e-01   1.9216210e+01
  -1.2370400e+01  -2.5630000e-01   1.7918710e+01
  -1.2447100e+01   1.1640000e+00   3.4966000e+00
  -1.2106100e+01   2.5061000e+00   3.2337600e+00
  -9.8810000e+00   1.0630000e+00   2.0604500e+00
  -1.1179800e+01   1.4370000e+00   2.7158900e+00
  -1.0027300e+01   2.2073000e+00   2.1502900e+00
  -1.4605700e+01   1.8856000e+00   4.9912300e+00
  -1.5629300e+01   1.8956000e+00   5.8310700e+00
  -1.3263600e+01   2.1043000e+00   3.9698500e+00
  -1.4103600e+01   2.9242000e+00   4.5284000e+00
  -9.8005000e+00   2.3720000e+00   1.2323210e+01
  -1.3042000e+01   3.4657000e+00   3.8372400e+00
  -1.1898600e+01   3.9580000e+00   3.2275400e+00
  -9.6642000e+00   3.4139000e+00   2.1046600e+00
  -1.0980400e+01   2.9689000e+00   2.6510900e+00
  -1.0674800e+01   4.3485000e+00   2.6891000e+00
  -1.5165600e+01   3.2943000e+00   5.3185000e+00
  -1.6070500e+01   4.2150000e+00   6.0332400e+00
  -1.4105900e+01   4.2013000e+00   4.5699200e+00
  -1.0598700e+01   3.3793000e+00   1.2909010e+01
  -9.7374000e+00   3.7816000e+00   1.1927510e+01
  -1.2147500e+01   1.5722000e+00   1.5813810e+01
  -1.2903700e+01   1.9990000e+00   1.6798210e+01
  -1.3010800e+01   4.5067000e+00   1.5749710e+01
  -1.2737100e+01   3.0674000e+00   1.5869010e+01
  -1.2220700e+01   3.8717000e+00   1.4781010e+01
  -1.1316100e+01   1.6493000e+00   1.4504110e+01
  -1.0583800e+01   1.9932000e+00   1.3383510e+01
  -1.1452100e+01   4.3281000e+00   1.3714710e+01
  -1.2002400e+01   2.5829000e+00   1.4988710e+01
  -1.1359500e+01   2.9988000e+00   1.3938810e+01
  -1.4478700e+01   2.1969000e+00   2.0000110e+01
  -1.4569100e+01   1.4567000e+00   2.1087010e+01
  -1.5484600e+01   4.7108000e+00   2.0434810e+01
  -1.5018800e+01   3.4525000e+00   2.0214810e+01
  -1.4822400e+01   4.3282000e+00   1.9109910e+01
  -1.3789200e+01   1.6529000e+00   1.8862610e+01
  -1.3013100e+01   1.0799000e+00   1.7782810e+01
  -1.3653900e+01   2.5163000e+00   1.7830210e+01
  -1.4354700e+01   3.0196000e+00   1.8950310e+01
  -1.3439900e+01   3.4522000e+00   1.6843710e+01
  -1.4155900e+01   3.9408000e+00   1.7922410e+01
  -6.4774000e+00  -1.3992500e+01   1.2056610e+01
  -8.3244000e+00  -1.3611000e+01   1.2868210e+01
  -9.4162000e+00  -1.2940100e+01   1.2750510e+01
  -7.5711000e+00  -1.3320500e+01   1.1778810e+01
  -6.6777000e+00  -1.3089600e+01   1.0765510e+01
  -5.3314000e+00  -1.4637600e+01   1.2375810e+01
  -4.5884000e+00  -1.4325200e+01   1.1468910e+01
  -5.5400000e+00  -1.2956400e+01   9.8616100e+00
  -5.6202000e+00  -1.3725900e+01   1.1082510e+01
  -4.4490000e+00  -1.3617200e+01   1.0299410e+01
  -8.9917000e+00  -1.4624100e+01   1.5249210e+01
  -7.8622000e+00  -1.5206400e+01   1.5260710e+01
  -9.3102000e+00  -1.3714700e+01   1.3947810e+01
  -8.1660000e+00  -1.4412200e+01   1.4099410e+01
  -7.2146000e+00  -1.4282900e+01   1.3083810e+01
  -5.6113000e+00  -1.5715900e+01   1.4427510e+01
  -4.2544000e+00  -1.6265500e+01   1.4594710e+01
  -4.6705000e+00  -1.5512600e+01   1.3494010e+01
  -6.0207000e+00  -1.4936300e+01   1.3324910e+01
  -6.9358000e+00  -1.5085500e+01   1.4261210e+01
  -7.5667000e+00  -1.7541200e+01   1.9658710e+01
  -6.2789000e+00  -1.7153700e+01   1.7664510e+01
  -5.0517000e+00  -1.7802400e+01   1.8023110e+01
  -6.2397000e+00  -1.7748800e+01   1.8854610e+01
  -4.9933000e+00  -1.8442700e+01   1.9299810e+01
  -8.7080000e+00  -1.7373400e+01   2.0512110e+01
  -7.5594000e+00  -1.8125600e+01   2.0915010e+01
  -4.4437000e+00  -1.9241800e+01   2.0610610e+01
  -6.4693000e+00  -1.8212600e+01   2.0029710e+01
  -5.5235000e+00  -1.8807600e+01   2.0486310e+01
  -7.5502000e+00  -1.5895800e+01   1.6283510e+01
  -8.7327000e+00  -1.5457500e+01   1.6561910e+01
  -6.5730000e+00  -1.5839400e+01   1.5350110e+01
  -6.3341000e+00  -1.6538400e+01   1.6489110e+01
  -5.2924000e+00  -1.6452400e+01   1.5564310e+01
  -8.6522000e+00  -1.6182400e+01   1.7910310e+01
  -8.7393000e+00  -1.6795100e+01   1.9285310e+01
  -7.5068000e+00  -1.7019700e+01   1.8495010e+01
  -5.1208000e+00  -1.7152800e+01   1.6788910e+01
  -7.5015000e+00  -1.6459000e+01   1.7345810e+01
  -7.1002000e+00  -8.8411000e+00   5.5513100e+00
  -6.1990000e+00  -8.3752000e+00   4.6102400e+00
  -4.9211000e+00  -9.0543000e+00   4.7199200e+00
  -5.9121000e+00  -9.4602000e+00   5.5744700e+00
  -4.7015000e+00  -1.0092000e+01   5.7394100e+00
  -8.2356000e+00  -8.8077000e+00   6.2304500e+00
  -9.5042000e+00  -8.2555000e+00   6.5618500e+00
  -4.5624000e+00  -1.1041800e+01   6.8019200e+00
  -7.0188000e+00  -9.7296000e+00   6.4742900e+00
  -5.8138000e+00  -1.0419300e+01   6.6148500e+00
  -5.5212000e+00  -6.8643000e+00   3.0344600e+00
  -7.6265000e+00  -6.2353000e+00   3.5396900e+00
  -4.3379000e+00  -6.4278000e+00   2.3309300e+00
  -5.2228000e+00  -7.9580000e+00   3.8054300e+00
  -4.1178000e+00  -7.5083000e+00   3.0587800e+00
  -9.4464000e+00  -6.5337000e+00   4.9002800e+00
  -8.7813000e+00  -7.7091000e+00   5.4906600e+00
  -8.1990000e+00  -6.9435000e+00   4.4248200e+00
  -7.5242000e+00  -7.9006000e+00   4.8718500e+00
  -6.6655000e+00  -7.2445000e+00   3.8339200e+00
  -7.9938000e+00  -1.1520200e+01   9.4097100e+00
  -9.2550000e+00  -1.0799800e+01   9.4201100e+00
  -8.6768000e+00  -1.2651400e+01   1.1627010e+01
  -8.9547000e+00  -1.1708000e+01   1.0444910e+01
  -7.8098000e+00  -1.2408900e+01   1.0555610e+01
  -8.0494000e+00  -9.8483000e+00   7.2818600e+00
  -9.0988000e+00  -9.2844000e+00   7.3860800e+00
  -8.2692000e+00  -1.0587500e+01   8.3613800e+00
  -6.9548000e+00  -1.0635200e+01   7.5234600e+00
  -7.6943000e+00  -6.2778000e+00   2.0809010e+01
  -6.9014000e+00  -1.1438400e+01   8.5372100e+00
  -4.4015000e+00  -1.1953500e+01   7.9108700e+00
  -4.2638000e+00  -1.2841500e+01   9.0774100e+00
  -5.5660000e+00  -1.2169200e+01   8.7501100e+00
  -6.7534000e+00  -1.2274100e+01   9.6057100e+00
  -5.6939000e+00  -1.1324400e+01   7.6809100e+00
  -5.0291000e+00  -6.3701000e+00   1.7920210e+01
  -5.2249000e+00  -6.7693000e+00   1.9233910e+01
  -6.3849000e+00  -6.6065000e+00   2.0007510e+01
  -5.3003000e+00  -7.1957000e+00   2.0608710e+01
  -2.7701000e+00  -1.5253800e+01   1.2222210e+01
  -3.9905000e+00  -1.5136400e+01   1.2507810e+01
  -2.0125000e+00  -1.6570700e+01   1.4231910e+01
  -1.9240000e+00  -1.5878800e+01   1.3011310e+01
  -3.2265000e+00  -1.5979900e+01   1.3608010e+01
  -1.8797000e+00  -1.3755300e+01   9.6729100e+00
  -2.9312000e+00  -1.3146200e+01   9.0426100e+00
  -3.4562000e+00  -1.4503600e+01   1.1259910e+01
  -2.2747000e+00  -1.4500500e+01   1.0883510e+01
  -3.2309000e+00  -1.3793800e+01   1.0081310e+01
  -1.4901000e+00  -1.5186400e+01   1.1784110e+01
  -1.3160000e-01  -1.5067500e+01   1.1470310e+01
  -8.7760000e-01  -1.6437600e+01   1.3772010e+01
  -5.7300000e-01  -1.5778000e+01   1.2617310e+01
   3.7230000e-01  -1.6358200e+01   1.3560410e+01
  -3.9770000e-01  -1.3029500e+01   8.4904700e+00
  -1.7165000e+00  -1.2902400e+01   8.4340300e+00
  -5.9700000e-01  -1.3724200e+01   9.4770100e+00
  -1.0030000e+00  -1.4467500e+01   1.0606210e+01
   3.2530000e-01  -1.4292500e+01   1.0296210e+01
  -2.5381000e+00  -1.8859700e+01   1.8746010e+01
  -1.4132000e+00  -1.8693700e+01   1.8035110e+01
  -3.0290000e-01  -1.8456200e+01   1.7382210e+01
  -1.2201000e+00  -1.9347900e+01   1.9296810e+01
  -1.0870000e-01  -1.9120600e+01   1.8659610e+01
  -3.6588000e+00  -1.8969700e+01   1.9548510e+01
  -3.3360000e+00  -1.9639900e+01   2.0785310e+01
  -1.1249000e+00  -1.9980000e+01   2.0582310e+01
   4.3900000e-02  -1.9785400e+01   1.9970110e+01
  -2.3356000e+00  -1.9494200e+01   1.9974410e+01
  -4.0592000e+00  -1.7001800e+01   1.5849310e+01
  -3.0160000e+00  -1.6808700e+01   1.4989010e+01
  -3.0520000e-01  -1.7048300e+01   1.4780210e+01
  -1.6113000e+00  -1.7274900e+01   1.5378710e+01
  -3.9360000e-01  -1.7753700e+01   1.6050910e+01
  -3.8900000e+00  -1.7687600e+01   1.7082910e+01
  -3.8222000e+00  -1.8337300e+01   1.8337310e+01
  -2.7616000e+00  -1.7519400e+01   1.6210510e+01
  -2.6614000e+00  -1.8202900e+01   1.7489810e+01
  -1.5219000e+00  -1.8003500e+01   1.6721410e+01
  -3.6349000e+00  -9.6489000e+00   4.8975500e+00
  -2.5628000e+00  -9.1412000e+00   4.1371500e+00
  -1.1771000e+00  -9.5610000e+00   4.3798300e+00
  -2.3060000e+00  -1.0139800e+01   5.1193700e+00
   2.6910000e-01  -9.8863000e+00   4.6972000e+00
  -3.4323000e+00  -1.0626100e+01   5.9184100e+00
  -2.1224000e+00  -1.1079900e+01   6.1590500e+00
  -8.2020000e-01  -1.1395600e+01   6.3944400e+00
  -9.5180000e-01  -1.0499000e+01   5.3589200e+00
   3.9110000e-01  -1.0782700e+01   5.6812700e+00
  -2.9887000e+00  -6.8662000e+00   2.3109100e+00
  -1.8343000e+00  -6.0855000e+00   1.6424100e+00
  -8.3470000e-01  -6.8615000e+00   2.0714400e+00
  -1.8231000e+00  -7.4390000e+00   2.5534800e+00
   4.4820000e-01  -7.0753000e+00   2.2298800e+00
  -2.8360000e+00  -8.0656000e+00   3.2072200e+00
  -3.8930000e+00  -8.6020000e+00   3.9361600e+00
  -1.5044000e+00  -8.5527000e+00   3.4400800e+00
  -9.0100000e-02  -8.9375000e+00   3.7436700e+00
  -4.6030000e-01  -7.9264000e+00   2.8550500e+00
  -3.0986000e+00  -1.2391100e+01   8.0439000e+00
  -1.9705000e+00  -1.1993000e+01   7.2643000e+00
  -3.6600000e+00  -6.4794000e+00   1.7301110e+01
  -3.2749000e+00  -1.1535900e+01   6.9786600e+00
  -2.2574000e+00  -6.4606000e+00   1.6722210e+01
  -6.9660000e-01  -1.2254000e+01   7.4660600e+00
   4.5890000e-01  -1.1703600e+01   6.7786500e+00
  -7.9120000e-01  -6.2580000e+00   1.6021710e+01
  -1.2133000e+00  -6.8298000e+00   1.7475210e+01
  -4.0300000e-02  -6.6877000e+00   1.7117310e+01
  -2.7727000e+00  -7.3782000e+00   1.9387010e+01
  -2.6800000e+00  -7.8773000e+00   2.0854410e+01
  -4.0068000e+00  -7.3467000e+00   1.9966410e+01
  -2.5471000e+00  -6.9423000e+00   1.8059710e+01
  -3.9054000e+00  -6.9147000e+00   1.8622410e+01
  -1.6685000e+00  -7.7058000e+00   1.9990410e+01
  -9.4440000e-01  -8.0714000e+00   2.0959210e+01
   5.3060000e-01  -8.0135000e+00   2.0827810e+01
  -2.9740000e-01  -7.6527000e+00   1.9713810e+01
   1.1340000e-01  -7.1810000e+00   1.8443210e+01
  -1.3259000e+00  -7.2944000e+00   1.8744110e+01
  -6.7264000e+00  -4.7439000e+00   2.1803800e+00
  -5.5775000e+00  -5.6676000e+00   2.2492400e+00
  -3.9514000e+00  -4.2934000e+00   1.0995600e+00
  -5.4535000e+00  -4.4219000e+00   1.5552400e+00
  -4.4579000e+00  -5.2878000e+00   1.6831600e+00
  -9.3300000e+00  -4.6663000e+00   3.4922800e+00
  -8.8065000e+00  -5.7757000e+00   3.8877600e+00
  -6.6646000e+00  -5.9736000e+00   2.8839000e+00
  -8.7185000e+00  -3.8234000e+00   2.6802700e+00
  -7.9485000e+00  -4.9957000e+00   2.8945500e+00
  -6.1032000e+00  -2.2227000e+00   9.9760000e-01
  -7.0042000e+00  -1.1523000e+00   1.0793800e+00
  -4.7657000e+00  -1.9073000e+00   5.7503000e-01
  -5.6810000e+00  -8.6530000e-01   6.4237000e-01
  -5.0732000e+00  -3.2579000e+00   9.9338000e-01
  -8.3470000e+00  -1.3333000e+00   1.6429400e+00
  -8.8468000e+00  -2.5571000e+00   2.2212200e+00
  -7.6559000e+00  -3.6839000e+00   2.0770900e+00
  -6.4415000e+00  -3.4677000e+00   1.4984700e+00
  -7.4807000e+00  -2.4219000e+00   1.5472300e+00
  -6.5856000e+00   2.2900000e-01   8.2225000e-01
  -7.5150000e+00   1.3166000e+00   1.1150400e+00
  -9.1747000e+00  -1.5590000e-01   1.8205500e+00
  -7.8693000e+00  -5.8500000e-02   1.2591900e+00
  -8.6979000e+00   1.0422000e+00   1.5397800e+00
  -7.2420000e+00   2.6052000e+00   1.1566300e+00
  -6.8068000e+00   3.8716000e+00   1.3004300e+00
  -9.1928000e+00   4.5802000e+00   2.1523400e+00
  -8.6956000e+00   2.3132000e+00   1.5956900e+00
  -8.2644000e+00   3.5408000e+00   1.6132100e+00
  -4.3027000e+00  -5.7950000e-01   3.2778000e-01
  -3.8513000e+00   7.5190000e-01   2.6682000e-01
  -5.2437000e+00   4.9490000e-01   4.9409000e-01
  -4.8130000e+00   1.8493000e+00   5.2556000e-01
  -6.1880000e+00   1.5948000e+00   7.6299000e-01
  -5.7969000e+00   2.9361000e+00   8.8846000e-01
  -4.3986000e+00   3.1797000e+00   7.3097000e-01
  -5.3595000e+00   4.2930000e+00   1.1601100e+00
  -4.4328000e+00   3.0469000e+00   8.6851100e+00
  -4.0204000e+00   4.4057000e+00   8.6756100e+00
  -1.5068000e+00  -3.7703000e+00   5.4996000e-01
  -3.8089000e+00  -2.9041000e+00   6.0351000e-01
  -3.2354000e+00  -5.6797000e+00   1.6141400e+00
  -2.8302000e+00  -3.7757000e+00   7.0520000e-01
  -2.3726000e+00  -4.8886000e+00   1.0781600e+00
  -1.9031000e+00  -1.3940000e+00   8.8190000e-02
  -2.8828000e+00  -3.3310000e-01   1.2355000e-01
  -3.3545000e+00  -1.6229000e+00   2.8185000e-01
  -2.3792000e+00  -2.6152000e+00   3.2743000e-01
  -1.8938000e+00   1.6330000e-01   8.4357000e+00
  -9.7350000e-01  -2.5422000e+00   1.9304000e-01
  -1.3640000e-01  -3.7090000e+00   4.8181000e-01
  -2.5270000e-01  -5.9155000e+00   1.4658500e+00
   5.0180000e-01  -4.8237000e+00   9.2272000e-01
  -9.6820000e-01  -4.9446000e+00   9.7970000e-01
  -1.4398000e+00  -1.3030000e-01   1.3430000e-02
   0.0000000e+00   0.0000000e+00   0.0000000e+00
  -4.6580000e-01  -1.2814000e+00   1.8930000e-02
  -4.7680000e-01   8.1000000e-02   8.2767800e+00
   4.5930000e-01  -2.4278000e+00   1.7270000e-01
  -2.4335000e+00   9.6640000e-01   1.5603000e-01
  -3.4127000e+00   2.0746000e+00   3.9349000e-01
  -2.9037000e+00   3.3112000e+00   6.2279000e-01
  -1.9546000e+00   2.2258000e+00   3.4043000e-01
  -2.2950000e+00   4.5705000e+00   9.8152000e-01
  -9.7440000e-01   1.1400000e+00   1.0154000e-01
   4.5840000e-01   1.2811000e+00   1.2919000e-01
  -5.1920000e-01   2.4122000e+00   3.3386000e-01
  -1.4931000e+00   3.5044000e+00   6.3100000e-01
  -1.6040000e-01   3.6938000e+00   6.8699000e-01
  -2.4938000e+00   1.2037000e+00   8.2889800e+00
  -3.4947000e+00   2.0246000e+00   8.4245300e+00
  -3.7564000e+00   4.3423000e+00   9.8930000e-01
  -3.0716000e+00   3.3704000e+00   8.2873600e+00
  -2.6072000e+00   4.6792000e+00   8.4041800e+00
  -2.0870000e+00   2.4218000e+00   8.0719100e+00
   1.7100000e-01   1.2069000e+00   7.9404900e+00
  -1.1567000e+00   1.3026000e+00   8.0311000e+00
  -6.9440000e-01   2.5510000e+00   7.8639700e+00
  -1.3170000e-01   3.7873000e+00   7.9434500e+00
  -1.6271000e+00   3.6840000e+00   8.0486000e+00
  -7.0182000e+00  -4.2384000e+00   1.5156310e+01
  -8.2303000e+00  -3.4296000e+00   1.5247310e+01
  -9.3243000e+00  -2.5168000e+00   1.5437110e+01
  -7.5240000e+00  -3.1737000e+00   1.4045110e+01
  -8.5748000e+00  -2.3388000e+00   1.4214810e+01
  -6.8290000e+00  -4.9590000e+00   1.6323110e+01
  -5.7577000e+00  -5.2223000e+00   1.5829310e+01
  -5.9101000e+00  -2.4360000e+00   1.1749210e+01
  -6.5315000e+00  -2.9798000e+00   1.2852110e+01
  -6.4658000e+00  -3.8437000e+00   1.3952910e+01
  -8.0071000e+00  -5.2871000e+00   1.8575010e+01
  -8.5114000e+00  -5.4947000e+00   1.9903510e+01
  -9.1918000e+00  -4.6157000e+00   1.8877110e+01
  -8.6539000e+00  -4.4368000e+00   1.7593310e+01
  -8.9893000e+00  -3.5617000e+00   1.6494310e+01
  -7.3556000e+00  -5.9803000e+00   1.9451910e+01
  -6.4110000e+00  -6.0720000e+00   1.8505810e+01
  -6.0187000e+00  -5.7281000e+00   1.7190010e+01
  -7.9151000e+00  -4.3388000e+00   1.6388110e+01
  -7.3277000e+00  -5.2539000e+00   1.7532810e+01
  -8.1101000e+00   4.9840000e-01   1.1427810e+01
  -7.9866000e+00  -8.5580000e-01   1.2155010e+01
  -7.7032000e+00  -2.1379000e+00   1.3013310e+01
  -8.9256000e+00   2.7400000e-02   1.2505810e+01
  -8.7626000e+00  -1.2505000e+00   1.3315410e+01
  -8.0205000e+00   1.8188000e+00   1.0830810e+01
  -7.8442000e+00   3.1766000e+00   1.0440510e+01
  -8.9846000e+00   1.4057000e+00   1.1843010e+01
  -8.8969000e+00   2.7786000e+00   1.1331810e+01
  -8.7256000e+00   4.1469000e+00   1.1037610e+01
  -7.0883000e+00   9.2500000e-01   1.0418310e+01
  -6.1010000e+00   4.4900000e-02   1.0122810e+01
  -6.9891000e+00  -1.7012000e+00   1.1916110e+01
  -6.2225000e+00  -1.1554000e+00   1.0886110e+01
  -7.1734000e+00  -3.5150000e-01   1.1093310e+01
  -5.9397000e+00   1.3153000e+00   9.5738100e+00
  -5.7008000e+00   2.6490000e+00   9.2102100e+00
  -6.6592000e+00   3.6127000e+00   9.6624100e+00
  -7.5756000e+00   4.5273000e+00   1.0255510e+01
  -6.9207000e+00   2.2561000e+00   9.9416100e+00
  -2.9075000e+00  -4.8589000e+00   1.3439010e+01
  -3.3060000e+00  -5.4414000e+00   1.4726610e+01
  -3.4150000e+00  -5.9891000e+00   1.5999510e+01
  -4.5401000e+00  -5.3966000e+00   1.5275810e+01
  -4.7410000e+00  -5.9138000e+00   1.6584710e+01
  -2.8854000e+00  -4.2163000e+00   1.2359810e+01
  -4.1194000e+00  -4.1977000e+00   1.2839910e+01
  -5.6480000e+00  -4.6690000e+00   1.4640810e+01
  -4.3395000e+00  -4.8217000e+00   1.4009410e+01
  -5.3776000e+00  -4.0246000e+00   1.3352610e+01
  -2.0979000e+00  -5.4154000e+00   1.4290110e+01
   5.1200000e-02  -5.1295000e+00   1.3629310e+01
  -2.0758000e+00  -5.9672000e+00   1.5483510e+01
  -8.7360000e-01  -5.6677000e+00   1.4678910e+01
   3.9130000e-01  -5.7318000e+00   1.4908210e+01
   4.9060000e-01  -3.7737000e+00   1.1456310e+01
  -9.2130000e-01  -3.6989000e+00   1.1287910e+01
  -1.6828000e+00  -4.3638000e+00   1.2321410e+01
  -1.3129000e+00  -5.0045000e+00   1.3383110e+01
  -3.4710000e-01  -4.4573000e+00   1.2408110e+01
  -4.1291000e+00  -1.8250000e+00   1.0174910e+01
  -3.1034000e+00  -2.7499000e+00   1.0596310e+01
  -5.6550000e-01  -2.0470000e+00   9.5153100e+00
  -1.6329000e+00  -2.8102000e+00   1.0304510e+01
  -1.2330000e-01  -2.9722000e+00   1.0405610e+01
  -5.2619000e+00  -1.8584000e+00   1.0790610e+01
  -5.1157000e+00  -3.3609000e+00   1.2251310e+01
  -2.2999000e+00  -3.5640000e+00   1.1292610e+01
  -4.4895000e+00  -2.7365000e+00   1.1161910e+01
  -3.7078000e+00  -3.5139000e+00   1.1687410e+01
  -3.5534000e+00   5.5310000e-01   8.7576100e+00
  -4.6810000e+00   1.6350000e+00   8.8991100e+00
  -1.1811000e+00  -9.2090000e-01   8.7958100e+00
  -2.6578000e+00  -6.6680000e-01   8.9642100e+00
   1.9690000e-01  -1.0765000e+00   8.8177100e+00
  -5.3693000e+00   4.0339000e+00   9.0896100e+00
  -5.1035000e+00  -8.1560000e-01   9.9811100e+00
  -4.8823000e+00   3.7770000e-01   9.3362100e+00
  -3.9034000e+00  -6.8370000e-01   9.3703100e+00
  -1.8239000e+00  -1.7923000e+00   9.4514100e+00
  -2.9586000e+00  -1.7877000e+00   9.7185100e+00
  -2.1137800e+01  -1.0493400e+01   2.7081210e+01
  -2.1065500e+01  -1.0067000e+01   2.5866910e+01
  -2.0539700e+01  -1.0130000e+01   2.4670710e+01
  -2.0272800e+01  -1.1232100e+01   2.6588810e+01
  -1.9973800e+01  -1.1033300e+01   2.5358310e+01
  -2.1948700e+01  -9.5944000e+00   2.7224310e+01
  -2.1660400e+01  -1.0361300e+01   2.8311810e+01
  -2.0129700e+01  -1.2224800e+01   2.8854710e+01
  -2.0664800e+01  -1.1350400e+01   2.7968010e+01
  -2.1211200e+01  -1.1195500e+01   2.9199310e+01
  -2.1437300e+01  -9.1129000e+00   2.4713510e+01
  -2.1400800e+01  -8.5212000e+00   2.3422810e+01
  -2.1320700e+01  -7.9520000e+00   2.2167010e+01
  -2.0564800e+01  -9.5882000e+00   2.3585710e+01
  -2.0544800e+01  -9.0023000e+00   2.2375510e+01
  -2.2771500e+01  -8.5912000e+00   2.7314510e+01
  -2.3369500e+01  -8.2941000e+00   2.8574710e+01
  -2.2550100e+01  -9.3406000e+00   2.8479210e+01
  -2.2001300e+01  -9.0525000e+00   2.6090310e+01
  -2.2302500e+01  -8.2454000e+00   2.5179210e+01
  -2.3668500e+01  -6.0249000e+00   2.4601610e+01
  -2.3719600e+01  -6.6935000e+00   2.6065810e+01
  -2.4152600e+01  -7.2004000e+00   2.8691210e+01
  -2.4324700e+01  -6.4799000e+00   2.7589610e+01
  -2.4947500e+01  -5.9661000e+00   2.8753910e+01
  -2.4342400e+01  -5.3660000e+00   2.5378810e+01
  -2.4232300e+01  -4.8203000e+00   2.4088410e+01
  -2.5057800e+01  -5.2584000e+00   2.7582210e+01
  -2.4444700e+01  -5.8097000e+00   2.6550710e+01
  -2.5050600e+01  -4.6504000e+00   2.6332110e+01
  -2.2236600e+01  -7.7806000e+00   2.4062310e+01
  -2.2150100e+01  -7.2684000e+00   2.2881310e+01
  -2.2950800e+01  -7.8664000e+00   2.6210410e+01
  -2.3046400e+01  -7.1332000e+00   2.4971410e+01
  -2.3576400e+01  -7.4937000e+00   2.7358210e+01
  -2.1981300e+01  -6.7808000e+00   2.1634510e+01
  -2.3332700e+01  -4.8940000e+00   2.1832010e+01
  -2.2795400e+01  -6.0646000e+00   2.2371510e+01
  -2.3569000e+01  -5.3665000e+00   2.3183810e+01
  -2.2954700e+01  -6.5724000e+00   2.3658710e+01
  -1.6395700e+01  -1.4592500e+01   2.6022210e+01
  -1.6867500e+01  -1.4709000e+01   2.7357110e+01
  -1.6447200e+01  -1.5673900e+01   2.9011510e+01
  -1.6059800e+01  -1.5539900e+01   2.7787410e+01
  -1.7327800e+01  -1.4841300e+01   2.8789410e+01
  -1.6144900e+01  -1.3679200e+01   2.3332310e+01
  -1.7178800e+01  -1.3659700e+01   2.5349310e+01
  -1.8370100e+01  -1.4024300e+01   2.9114610e+01
  -1.7940900e+01  -1.3959300e+01   2.7845410e+01
  -1.7562100e+01  -1.3808900e+01   2.6559410e+01
  -1.5080500e+01  -1.5265800e+01   2.5086710e+01
  -1.4453300e+01  -1.6147300e+01   2.6113010e+01
  -1.5403100e+01  -1.6420400e+01   2.8735510e+01
  -1.5576100e+01  -1.5431400e+01   2.6485910e+01
  -1.4953200e+01  -1.6286800e+01   2.7443510e+01
  -1.4630000e+01  -1.3936600e+01   2.1218010e+01
  -1.5386300e+01  -1.3855900e+01   2.2349010e+01
  -1.4379300e+01  -1.4711300e+01   2.2523810e+01
  -1.6050400e+01  -1.4354300e+01   2.4728710e+01
  -1.5192600e+01  -1.4601600e+01   2.3699810e+01
  -1.8410700e+01  -1.1806400e+01   2.3597010e+01
  -1.8847000e+01  -1.1011500e+01   2.2792710e+01
  -1.9724900e+01  -1.0064300e+01   2.2682310e+01
  -1.8822200e+01  -1.0475500e+01   2.1649210e+01
  -1.9705600e+01  -9.4347000e+00   2.1397210e+01
  -1.6520600e+01  -1.2880600e+01   2.2258210e+01
  -1.5702700e+01  -1.3087100e+01   2.1225710e+01
  -1.6919800e+01  -1.2079100e+01   2.1278710e+01
  -1.7826400e+01  -1.1699400e+01   2.2203110e+01
  -1.7340400e+01  -1.2585800e+01   2.3171210e+01
  -1.9005400e+01  -1.3093300e+01   2.8175810e+01
  -1.9362700e+01  -1.3160500e+01   2.9333910e+01
  -1.9689500e+01  -1.2171400e+01   2.7480610e+01
  -1.9286200e+01  -1.2046700e+01   2.6149410e+01
  -1.9580300e+01  -1.0815400e+01   2.3942010e+01
  -1.8618800e+01  -1.3000500e+01   2.6951410e+01
  -1.6904400e+01  -1.3401300e+01   2.4169710e+01
  -1.8265400e+01  -1.2827800e+01   2.5690310e+01
  -1.7911100e+01  -1.2655000e+01   2.4481110e+01
  -1.8982300e+01  -1.1801700e+01   2.4828110e+01
  -2.2764400e+01  -1.0395400e+01   3.2540110e+01
  -2.3520100e+01  -9.5832000e+00   3.3270410e+01
  -2.3619900e+01  -8.7950000e+00   3.0985010e+01
  -2.3388300e+01  -9.4253000e+00   3.1996110e+01
  -2.3068000e+01  -9.1471000e+00   2.9779510e+01
  -2.2079400e+01  -1.1017900e+01   3.1765910e+01
  -2.2056200e+01  -1.1433900e+01   3.3165110e+01
  -2.2219300e+01  -1.0140300e+01   2.9547010e+01
  -2.2711400e+01  -9.9923000e+00   3.0949710e+01
  -2.1793800e+01  -1.0938100e+01   3.0412910e+01
  -2.3515600e+01  -9.8986000e+00   3.4586610e+01
  -2.3664800e+01  -9.9674000e+00   3.6013110e+01
  -2.4516100e+01  -8.7652000e+00   3.6396010e+01
  -2.4176400e+01  -9.0780000e+00   3.5210610e+01
  -2.4215500e+01  -8.7541000e+00   3.3894010e+01
  -2.2224700e+01  -1.1884100e+01   3.5996910e+01
  -2.1509700e+01  -1.2857600e+01   3.6494410e+01
  -2.2106800e+01  -1.1713400e+01   3.4559610e+01
  -2.2799100e+01  -1.0695200e+01   3.3914210e+01
  -2.2894300e+01  -1.0887600e+01   3.5336710e+01
  -2.5671900e+01  -5.9892000e+00   3.2284610e+01
  -2.5561200e+01  -6.5132000e+00   3.3492110e+01
  -2.5468600e+01  -6.9508000e+00   3.4745010e+01
  -2.6117500e+01  -5.7606000e+00   3.4580710e+01
  -2.5966700e+01  -6.2586000e+00   3.5852710e+01
  -2.5780600e+01  -5.4064000e+00   3.1101610e+01
  -2.5804600e+01  -4.8921000e+00   2.9845210e+01
  -2.6617000e+01  -4.9692000e+00   3.5600310e+01
  -2.6223100e+01  -5.2726000e+00   3.3340910e+01
  -2.6324000e+01  -4.7232000e+00   3.2134210e+01
  -2.4385200e+01  -7.7455000e+00   3.1186410e+01
  -2.3872400e+01  -8.0581000e+00   2.9849110e+01
  -2.4191200e+01  -8.4202000e+00   3.2464710e+01
  -2.4871100e+01  -7.6841000e+00   3.3618010e+01
  -2.4814500e+01  -8.0642000e+00   3.4989810e+01
  -2.4598500e+01  -6.9969000e+00   2.9924410e+01
  -2.5244800e+01  -5.9421000e+00   2.9967210e+01
  -2.5105100e+01  -6.6051000e+00   3.1161210e+01
  -2.5291500e+01  -7.4678000e+00   3.6022410e+01
  -2.4959300e+01  -7.2165000e+00   3.2369910e+01
  -1.6588800e+01  -1.6376900e+01   3.1419710e+01
  -1.6499100e+01  -1.6931400e+01   3.2930810e+01
  -1.6954500e+01  -1.7197500e+01   3.5236610e+01
  -1.7217100e+01  -1.6623400e+01   3.4001110e+01
  -1.7726800e+01  -1.6759800e+01   3.6247410e+01
  -1.7421300e+01  -1.6041500e+01   3.2649310e+01
  -1.7007300e+01  -1.5612200e+01   3.0208610e+01
  -1.8834600e+01  -1.5678600e+01   3.6207310e+01
  -1.7992500e+01  -1.6215800e+01   3.5100410e+01
  -1.8184400e+01  -1.5684900e+01   3.3825010e+01
  -1.5397000e+01  -1.7912800e+01   3.3154710e+01
  -1.4711500e+01  -1.8065500e+01   3.1935310e+01
  -1.5000700e+01  -1.8993900e+01   3.5740310e+01
  -1.4999100e+01  -1.8588700e+01   3.4316910e+01
  -1.5947200e+01  -1.8112000e+01   3.5381010e+01
  -1.4801100e+01  -1.7226900e+01   2.9686110e+01
  -1.5964000e+01  -1.6445100e+01   3.0067410e+01
  -1.5338200e+01  -1.7232500e+01   3.0898910e+01
  -1.6155000e+01  -1.7590900e+01   3.4167510e+01
  -1.5766800e+01  -1.7256200e+01   3.2027510e+01
  -1.8964200e+01  -1.3895600e+01   3.0379510e+01
  -1.8665800e+01  -1.4537200e+01   3.1494010e+01
  -1.7956700e+01  -1.4770500e+01   3.0190510e+01
  -1.8449000e+01  -1.5085500e+01   3.2631810e+01
  -1.7652300e+01  -1.5448900e+01   3.1437710e+01
  -1.9843200e+01  -1.4273000e+01   3.4675110e+01
  -1.9791300e+01  -1.4615500e+01   3.5839910e+01
  -1.8928500e+01  -1.5269500e+01   3.4952810e+01
  -1.9519400e+01  -1.4091900e+01   3.2777210e+01
  -1.9171600e+01  -1.4710700e+01   3.3748310e+01
  -2.0736600e+01  -1.2006300e+01   3.0059410e+01
  -2.1271500e+01  -1.1771500e+01   3.1172610e+01
  -1.9938000e+01  -1.2934300e+01   3.0373710e+01
  -2.0521600e+01  -1.2681500e+01   3.1472510e+01
  -1.9636800e+01  -1.3618500e+01   3.1570710e+01
  -2.1298600e+01  -1.2108900e+01   3.2425510e+01
  -2.1365800e+01  -1.2700300e+01   3.5059210e+01
  -2.1270500e+01  -1.2487600e+01   3.3726310e+01
  -2.0661900e+01  -1.3605500e+01   3.5546210e+01
  -2.0412700e+01  -1.3493700e+01   3.4003110e+01
  -2.0437800e+01  -1.3133200e+01   3.2727810e+01
  -2.6652800e+01  -1.5558000e+00   2.6711110e+01
  -2.6485400e+01  -1.1191000e+00   2.5430610e+01
  -2.7084900e+01  -3.0360000e-01   2.6431710e+01
  -2.6369600e+01  -5.6470000e-01   2.4303810e+01
  -2.6919600e+01   2.0180000e-01   2.5168710e+01
  -2.6194700e+01  -2.7626000e+00   2.7006010e+01
  -2.5669900e+01  -4.0159000e+00   2.7341110e+01
  -2.6014000e+01  -4.7370000e-01   2.3125410e+01
  -2.6034700e+01  -2.2773000e+00   2.5622910e+01
  -2.5842600e+01  -1.7128000e+00   2.4168710e+01
  -2.7352300e+01  -1.2072000e+00   2.9033110e+01
  -2.7414600e+01  -1.6769000e+00   3.0303710e+01
  -2.7878600e+01  -3.6480000e-01   3.0051910e+01
  -2.7236200e+01  -7.5740000e-01   2.7729810e+01
  -2.7777400e+01   7.7200000e-02   2.8736910e+01
  -2.6327600e+01  -3.7379000e+00   2.9540710e+01
  -2.6253300e+01  -3.3168000e+00   2.8303010e+01
  -2.6907400e+01  -2.9577000e+00   3.0564110e+01
  -2.6780900e+01  -2.0252000e+00   2.8023910e+01
  -2.6858800e+01  -2.4873000e+00   2.9289810e+01
  -2.7416400e+01  -2.1955000e+00   3.1577110e+01
  -2.7393300e+01  -2.6966000e+00   3.2877910e+01
  -2.6375200e+01  -4.1761000e+00   3.0866410e+01
  -2.6899500e+01  -3.4632000e+00   3.1877010e+01
  -2.6845300e+01  -3.9735000e+00   3.3143110e+01
  -2.7738900e+01  -2.4345000e+00   3.5226110e+01
  -2.7635100e+01  -2.8357000e+00   3.6504510e+01
  -2.6736300e+01  -4.5058000e+00   3.4362610e+01
  -2.7310500e+01  -3.2309000e+00   3.4169710e+01
  -2.7208600e+01  -3.6993000e+00   3.5436010e+01
  -2.8345900e+01  -7.3200000e-02   3.2311410e+01
  -2.8360900e+01   4.9160000e-01   3.1082910e+01
  -2.7911300e+01  -8.7970000e-01   3.1319710e+01
  -2.8277600e+01  -6.9690000e-01   3.3644710e+01
  -2.7886000e+01  -1.4220000e+00   3.2596710e+01
  -2.8592200e+01  -1.9200000e-02   3.4792910e+01
  -2.8567800e+01  -2.5610000e-01   3.6137610e+01
  -2.8201700e+01  -1.1949000e+00   3.5027710e+01
  -2.7823300e+01  -1.9560000e+00   3.3927210e+01
  -2.8124000e+01  -1.5624000e+00   3.6333410e+01
  -2.7469500e+01   2.6645000e+00   2.4400910e+01
  -2.6911500e+01   1.7845000e+00   2.3478610e+01
  -2.6608000e+01   2.1443000e+00   2.2301510e+01
  -2.6617200e+01   5.9330000e-01   2.3761310e+01
  -2.6230200e+01   8.2950000e-01   2.2392010e+01
  -2.7758300e+01   2.2433000e+00   2.5768610e+01
  -2.7989700e+01   1.8288000e+00   2.7118810e+01
  -2.7639200e+01   5.2880000e-01   2.7436310e+01
  -2.7219200e+01   1.4095000e+00   2.4792010e+01
  -2.7468200e+01   9.8470000e-01   2.6140410e+01
  -2.7664700e+01   3.9177000e+00   2.4027810e+01
  -2.7280300e+01   4.3294000e+00   2.2642710e+01
  -2.6906700e+01   4.7033000e+00   2.1470710e+01
  -2.7136100e+01   3.0977000e+00   2.3046210e+01
  -2.6661500e+01   3.3162000e+00   2.1610210e+01
  -2.8484600e+01   4.3954000e+00   2.6383910e+01
  -2.8744700e+01   4.0795000e+00   2.7724910e+01
  -2.8483500e+01   2.7344000e+00   2.8096710e+01
  -2.8268600e+01   3.1075000e+00   2.6768110e+01
  -2.7996100e+01   3.4922000e+00   2.5406410e+01
  -2.9109300e+01   2.7669000e+00   3.1563410e+01
  -2.9220500e+01   2.6662000e+00   3.2736510e+01
  -2.9247900e+01   2.2212000e+00   3.5004710e+01
  -2.9423900e+01   3.1179000e+00   3.3986710e+01
  -2.9379100e+01   2.6557000e+00   3.6217210e+01
  -2.9391800e+01   4.0617000e+00   3.1263910e+01
  -2.9336300e+01   4.6638000e+00   2.9977410e+01
  -2.9724700e+01   4.3914000e+00   3.4256510e+01
  -2.9581400e+01   3.5716000e+00   3.5302310e+01
  -2.9524300e+01   3.9185000e+00   3.2776410e+01
  -2.8276100e+01   9.3400000e-01   2.9743910e+01
  -2.8155500e+01   1.3879000e+00   2.8424710e+01
  -2.8672900e+01   5.6600000e-01   3.3370410e+01
  -2.8922700e+01   1.0869000e+00   3.4593210e+01
  -2.8962600e+01   1.0665000e+00   3.5895210e+01
  -2.8623000e+01   2.2795000e+00   2.9386210e+01
  -2.8934500e+01   3.7047000e+00   2.9024810e+01
  -2.9039100e+01   3.2074000e+00   3.0275310e+01
  -2.8719500e+01   1.8058000e+00   3.0726510e+01
  -2.9059600e+01   1.8118000e+00   3.3568910e+01
  -2.8794500e+01   1.3905000e+00   3.2143010e+01
  -2.4730400e+01  -3.6782000e+00   2.3683310e+01
  -2.5426700e+01  -2.9554000e+00   2.4667210e+01
  -2.5649100e+01  -4.6498000e+00   2.8603310e+01
  -2.4927500e+01  -4.1506000e+00   2.5038710e+01
  -2.5585100e+01  -3.4652000e+00   2.6021110e+01
  -2.4887600e+01  -1.6394000e+00   2.1426010e+01
  -2.5605100e+01  -4.0710000e-01   2.1926110e+01
  -2.5401500e+01  -1.5696000e+00   2.2687810e+01
  -2.4602300e+01  -2.8497000e+00   2.2172110e+01
  -2.5170600e+01  -2.5794000e+00   2.3357610e+01
  -2.4105200e+01  -4.1248000e+00   2.2654010e+01
  -2.3825000e+01  -3.6763000e+00   2.1311210e+01
  -1.4405600e+01  -1.9654000e+00   2.7343410e+01
  -1.4630800e+01  -8.4270000e-01   2.5395110e+01
  -1.5055600e+01  -1.0544000e+00   2.7994810e+01
  -1.4391000e+01  -6.1770000e-01   2.3891710e+01
  -1.5005500e+01   1.6520000e-01   2.4694910e+01
  -1.5375400e+01   3.5200000e-01   2.5931810e+01
  -1.5649400e+01   1.7900000e-02   2.8252410e+01
  -1.5015800e+01  -6.8220000e-01   2.6769910e+01
  -1.5394300e+01  -1.4485000e+00   3.1581210e+01
  -1.5052000e+01  -1.7268000e+00   3.0217910e+01
  -1.4671800e+01  -1.9889000e+00   2.8830910e+01
  -1.5032000e+01  -2.3314000e+00   3.2590710e+01
  -1.4677600e+01  -2.6039000e+00   3.1135010e+01
  -1.5383000e+01  -2.0033000e+00   3.4056110e+01
  -1.5527800e+01  -2.0895000e+00   3.6310210e+01
  -1.4369000e+01  -4.0698000e+00   3.6018910e+01
  -1.4717400e+01  -3.0932000e+00   3.3668410e+01
  -1.5045100e+01  -2.8354000e+00   3.5232310e+01
  -1.6059900e+01  -1.9000000e-01   3.1912710e+01
  -1.6026100e+01   3.5830000e-01   2.9635710e+01
  -1.5391100e+01  -8.3300000e-01   2.9298710e+01
  -1.5744600e+01  -5.1970000e-01   3.0620510e+01
  -1.5691400e+01  -1.1767000e+00   3.2918010e+01
  -1.6622600e+01   6.0190000e-01   3.4185010e+01
  -1.6366700e+01  -1.7230000e-01   3.5438310e+01
  -1.6306900e+01   6.5200000e-02   3.3116310e+01
  -1.5774300e+01  -1.4435000e+00   3.5294010e+01
  -1.6034300e+01  -7.2770000e-01   3.4188110e+01
  -1.5588200e+01   2.0206000e+00   2.3633310e+01
  -1.5575200e+01   1.3041000e+00   2.4804810e+01
  -1.5107300e+01   2.5710000e+00   2.1324810e+01
  -1.4995700e+01   7.4380000e-01   2.3528110e+01
  -1.4969100e+01   1.4210000e+00   2.2356810e+01
  -1.6377200e+01   1.9488000e+00   2.7402410e+01
  -1.6242300e+01   1.2034000e+00   2.8525910e+01
  -1.5763900e+01   6.5550000e-01   2.7174510e+01
  -1.6113100e+01   2.5163000e+00   2.4963910e+01
  -1.5985000e+01   1.6045000e+00   2.6107510e+01
  -1.6139800e+01   3.3262000e+00   2.3847010e+01
  -1.6635000e+01   4.6592000e+00   2.4083410e+01
  -1.5607900e+01   3.8179000e+00   2.1522810e+01
  -1.6131500e+01   4.2003000e+00   2.2795510e+01
  -1.5602100e+01   2.8280000e+00   2.2569210e+01
  -1.7017800e+01   4.1728000e+00   2.6414710e+01
  -1.7332300e+01   4.4148000e+00   2.7651310e+01
  -1.6900700e+01   3.2034000e+00   2.7587510e+01
  -1.6530400e+01   2.8703000e+00   2.6274610e+01
  -1.6619900e+01   3.7989000e+00   2.5150610e+01
  -1.7086400e+01   2.7287000e+00   3.0082310e+01
  -1.7426900e+01   3.2291000e+00   3.1462110e+01
  -1.7895300e+01   4.6234000e+00   3.1367310e+01
  -1.7324600e+01   3.8003000e+00   2.8923110e+01
  -1.7531400e+01   3.8728000e+00   3.0294810e+01
  -1.6722300e+01   1.1668000e+00   3.2523410e+01
  -1.6386900e+01   7.4120000e-01   3.1050710e+01
  -1.6801500e+01   2.4624000e+00   2.8752410e+01
  -1.6925700e+01   1.9566000e+00   3.1313910e+01
  -1.6584600e+01   1.5416000e+00   2.9895910e+01
  -1.7842900e+01   3.8259000e+00   3.5047310e+01
  -1.7631600e+01   3.1211000e+00   3.6351010e+01
  -1.8051600e+01   4.5979000e+00   3.3745910e+01
  -1.7781700e+01   3.9634000e+00   3.2594910e+01
  -1.8030700e+01   4.4368000e+00   3.6325010e+01
  -1.7193100e+01   1.8415000e+00   3.6469010e+01
  -1.6921400e+01   1.1806000e+00   3.5306110e+01
  -1.7087100e+01   1.8098000e+00   3.3853510e+01
  -1.7393500e+01   2.4747000e+00   3.5091410e+01
  -1.7270300e+01   2.5130000e+00   3.2636410e+01
  -1.7594400e+01   3.2015000e+00   3.3827210e+01
  -9.3441000e+00  -2.0914900e+01   2.9884710e+01
  -9.8330000e+00  -2.0242200e+01   2.8847810e+01
  -1.0302700e+01  -1.9601000e+01   2.7902210e+01
  -9.1868000e+00  -2.0063400e+01   2.7453810e+01
  -8.7964000e+00  -1.9678800e+01   2.5963010e+01
  -8.5732000e+00  -2.0809400e+01   2.8518010e+01
  -7.5158000e+00  -2.1502900e+01   2.8936710e+01
  -7.2709000e+00  -1.9871800e+01   2.4604110e+01
  -8.0837000e+00  -2.0471700e+01   2.7019010e+01
  -7.6255000e+00  -2.0163500e+01   2.5714010e+01
  -1.0055400e+01  -2.0951500e+01   3.1123810e+01
  -1.1258200e+01  -2.0264500e+01   3.1279010e+01
  -1.2428700e+01  -1.9564400e+01   3.1488910e+01
  -1.0631000e+01  -2.0191300e+01   2.9981710e+01
  -1.1828600e+01  -1.9500700e+01   3.0177410e+01
  -8.2186000e+00  -2.2322500e+01   3.2195810e+01
  -7.5286000e+00  -2.2263000e+01   3.1029710e+01
  -9.4965000e+00  -2.1680000e+01   3.2300910e+01
  -8.1843000e+00  -2.1550500e+01   2.9943310e+01
  -8.8311000e+00  -2.1631900e+01   3.1101510e+01
  -1.0143200e+01  -2.1710100e+01   3.3559710e+01
  -9.5386000e+00  -2.2399700e+01   3.4704110e+01
  -7.6304000e+00  -2.2950800e+01   3.3258210e+01
  -8.9171000e+00  -2.2353600e+01   3.3422810e+01
  -8.2820000e+00  -2.3006300e+01   3.4497410e+01
  -1.0726400e+01  -2.1744900e+01   3.4834310e+01
  -1.1309400e+01  -2.1731100e+01   3.6088810e+01
  -7.4815000e+00  -2.3651800e+01   3.5445110e+01
  -8.8544000e+00  -2.3064900e+01   3.5758910e+01
  -1.0138100e+01  -2.2434600e+01   3.6045710e+01
  -1.2492500e+01  -2.0300900e+01   3.3857710e+01
  -1.3045400e+01  -1.9559100e+01   3.2743310e+01
  -1.0702900e+01  -2.1005900e+01   3.2415710e+01
  -1.1874900e+01  -2.0311200e+01   3.2586210e+01
  -1.1338900e+01  -2.1028100e+01   3.3732510e+01
  -1.3649400e+01  -1.9496800e+01   3.3903210e+01
  -1.3801300e+01  -2.0019400e+01   3.6125210e+01
  -1.3037700e+01  -2.0284500e+01   3.5083210e+01
  -1.1928400e+01  -2.1038800e+01   3.5051610e+01
  -1.2646000e+01  -2.0916400e+01   3.6372810e+01
  -1.0763200e+01  -1.7363500e+01   2.3083810e+01
  -9.6843000e+00  -1.7286700e+01   2.1477010e+01
  -8.5737000e+00  -1.8030600e+01   2.1823110e+01
  -9.6409000e+00  -1.7825700e+01   2.2651010e+01
  -7.5146000e+00  -1.8742000e+01   2.2234710e+01
  -9.6752000e+00  -1.8337100e+01   2.3894110e+01
  -1.0801000e+01  -1.7933100e+01   2.4492110e+01
  -7.4241000e+00  -1.9318500e+01   2.3471610e+01
  -8.5676000e+00  -1.8631600e+01   2.3185510e+01
  -8.5091000e+00  -1.9240900e+01   2.4545210e+01
  -1.3252500e+01  -1.5558200e+01   2.2600510e+01
  -1.3552400e+01  -1.4832600e+01   2.1430510e+01
  -1.2332000e+01  -1.5757800e+01   2.1628010e+01
  -1.1926900e+01  -1.6471600e+01   2.2670610e+01
  -1.0852900e+01  -1.6749100e+01   2.1781510e+01
  -1.4150500e+01  -1.5416500e+01   2.3775610e+01
  -1.3876800e+01  -1.6069500e+01   2.4876410e+01
  -1.2937500e+01  -1.6216900e+01   2.3646510e+01
  -1.1769000e+01  -1.7106000e+01   2.3942910e+01
  -1.2753500e+01  -1.6797800e+01   2.4756110e+01
  -1.3030800e+01  -1.8794400e+01   3.0474510e+01
  -1.4190100e+01  -1.8032300e+01   3.0684910e+01
  -1.4140100e+01  -1.9449200e+01   3.4979510e+01
  -1.3609600e+01  -1.8825400e+01   3.1747610e+01
  -1.4285100e+01  -1.8750100e+01   3.3041910e+01
  -1.3853100e+01  -1.6988900e+01   2.7159510e+01
  -1.3251100e+01  -1.6928000e+01   2.5917210e+01
  -1.4289100e+01  -1.7156900e+01   2.8442110e+01
  -1.3628900e+01  -1.7998500e+01   2.9435210e+01
  -1.3156800e+01  -1.7859300e+01   2.8163310e+01
  -9.9160000e+00  -1.9285900e+01   2.6523810e+01
  -9.6810000e+00  -1.8858900e+01   2.5144510e+01
  -1.1209900e+01  -1.9403000e+01   2.8845910e+01
  -1.0997000e+01  -1.8917100e+01   2.7233710e+01
  -1.2454200e+01  -1.8721500e+01   2.9192210e+01
  -1.0782000e+01  -1.8472400e+01   2.5772810e+01
  -1.1932600e+01  -1.7595700e+01   2.5393010e+01
  -1.1733300e+01  -1.8193600e+01   2.6558810e+01
  -1.2721600e+01  -1.7663800e+01   2.6873510e+01
  -1.2014800e+01  -1.8539900e+01   2.7929810e+01
  -2.3231000e+00  -2.3648100e+01   2.9779910e+01
  -2.5910000e+00  -2.4036300e+01   3.1048610e+01
  -2.8575000e+00  -2.4418600e+01   3.2376010e+01
  -3.9244000e+00  -2.3815300e+01   3.1460910e+01
  -5.4108000e+00  -2.3492300e+01   3.2022710e+01
  -2.9585000e+00  -2.3138100e+01   2.8806010e+01
  -4.2926000e+00  -2.2897500e+01   2.9214310e+01
  -6.8564000e+00  -2.2930600e+01   3.2101010e+01
  -3.5768000e+00  -2.3464800e+01   3.0164610e+01
  -4.8686000e+00  -2.3221900e+01   3.0652810e+01
  -1.2207000e+00  -2.4019600e+01   3.0213710e+01
  -7.3000000e-02  -2.3909800e+01   2.9458410e+01
  -1.8350000e-01  -2.4837300e+01   3.2069310e+01
  -6.5100000e-02  -2.4409000e+01   3.0798510e+01
  -1.4474000e+00  -2.4459400e+01   3.1540110e+01
   4.6150000e-01  -2.3096400e+01   2.7234210e+01
  -9.7670000e-01  -2.2999200e+01   2.7383910e+01
  -2.2809000e+00  -2.2860700e+01   2.7664810e+01
  -1.4253000e+00  -2.3454700e+01   2.8763510e+01
  -1.1330000e-01  -2.3470000e+01   2.8300410e+01
  -3.3656000e+00  -2.5022300e+01   3.4825910e+01
  -2.4882000e+00  -2.4899100e+01   3.3627310e+01
  -8.6500000e-02  -2.5269400e+01   3.3388110e+01
  -2.1221000e+00  -2.5331900e+01   3.4817810e+01
  -1.1144000e+00  -2.5335700e+01   3.4130110e+01
  -2.5710000e+00  -2.5543800e+01   3.5967410e+01
  -3.9534000e+00  -2.5167100e+01   3.6002310e+01
  -2.4400000e-02  -2.6142800e+01   3.6431210e+01
  -4.2400000e-02  -2.5736300e+01   3.4944810e+01
  -1.1454000e+00  -2.5754200e+01   3.5621610e+01
  -5.2468000e+00  -2.4077500e+01   3.3676810e+01
  -6.2509000e+00  -2.3524500e+01   3.3150810e+01
  -4.3399000e+00  -2.4062600e+01   3.2627510e+01
  -3.8040000e+00  -2.4550500e+01   3.3645010e+01
  -1.4317000e+00  -2.4875900e+01   3.2805810e+01
  -6.9561000e+00  -2.3555200e+01   3.4240210e+01
  -6.6105000e+00  -2.4261500e+01   3.6285210e+01
  -6.0336000e+00  -2.4142800e+01   3.4944410e+01
  -5.2898000e+00  -2.4736700e+01   3.6081310e+01
  -4.6815000e+00  -2.4610500e+01   3.4821510e+01
  -3.9152000e+00  -2.0587300e+01   2.3230510e+01
  -2.7551000e+00  -2.1091900e+01   2.3701310e+01
  -3.5500000e-02  -2.1015200e+01   2.2561910e+01
  -1.4707000e+00  -2.1035400e+01   2.2998110e+01
  -5.0190000e-01  -2.1545700e+01   2.3859610e+01
  -5.0044000e+00  -2.0632100e+01   2.4177110e+01
  -3.7166000e+00  -2.1207900e+01   2.4539310e+01
   2.9370000e-01  -2.2062500e+01   2.4882810e+01
  -1.7773000e+00  -2.1528400e+01   2.4243510e+01
  -1.0763000e+00  -2.2041800e+01   2.5164710e+01
  -5.2187000e+00  -1.9471900e+01   2.1705410e+01
  -6.4720000e+00  -1.8833000e+01   2.1374410e+01
   1.1090000e-01  -2.0426800e+01   2.1294310e+01
  -2.3244000e+00  -2.0111600e+01   2.1297510e+01
  -1.1845000e+00  -2.0554000e+01   2.1835210e+01
  -6.3307000e+00  -1.9431000e+01   2.2599710e+01
  -6.1710000e+00  -2.0036600e+01   2.3838410e+01
  -5.0955000e+00  -2.0049700e+01   2.2902010e+01
  -2.6885000e+00  -2.0554900e+01   2.2443010e+01
  -3.9190000e+00  -2.0006500e+01   2.1934010e+01
  -4.5658000e+00  -2.1922700e+01   2.6918710e+01
  -5.5827000e+00  -2.1282200e+01   2.6269310e+01
  -6.8043000e+00  -2.0868300e+01   2.6497710e+01
  -4.8665000e+00  -2.1165500e+01   2.5337210e+01
  -6.1994000e+00  -2.0580400e+01   2.5176210e+01
  -1.7620000e+00  -2.2432000e+01   2.6330710e+01
  -3.5740000e-01  -2.2571000e+01   2.6175710e+01
  -2.5768000e+00  -2.1813000e+01   2.5278010e+01
  -3.8316000e+00  -2.1706000e+01   2.5801910e+01
  -3.0708000e+00  -2.2272100e+01   2.6658010e+01
  -6.8343000e+00  -2.2181200e+01   2.9908810e+01
  -6.1638000e+00  -2.2833900e+01   3.0953010e+01
  -7.2549000e+00  -2.1167300e+01   2.7764610e+01
  -6.3074000e+00  -2.1938600e+01   2.8649610e+01
  -5.9450000e+00  -2.1614100e+01   2.7434710e+01
  -5.5538000e+00  -2.2599200e+01   2.9622210e+01
  -3.7264000e+00  -2.2555500e+01   2.7854710e+01
  -5.0314000e+00  -2.2275100e+01   2.8252610e+01
  -1.7090000e-01  -1.3035300e+01   3.5766810e+01
  -1.1388000e+00  -1.2671000e+01   3.5017810e+01
  -1.6059000e+00  -1.2987500e+01   3.6413010e+01
  -5.8038000e+00  -9.3219000e+00   2.8297110e+01
  -6.9899000e+00  -8.8333000e+00   2.8347710e+01
  -5.1894000e+00  -9.9073000e+00   2.9484810e+01
  -6.4860000e+00  -9.4036000e+00   2.9537510e+01
  -7.7415000e+00  -8.8225000e+00   2.9610210e+01
  -6.3177000e+00  -8.7010000e+00   2.6893610e+01
  -6.2044000e+00  -8.3598000e+00   2.5580310e+01
  -8.9706000e+00  -8.1433000e+00   2.9697910e+01
  -7.4975000e+00  -8.2865000e+00   2.7283010e+01
  -8.2488000e+00  -8.2299000e+00   2.8471510e+01
  -3.8685000e+00  -9.5721000e+00   2.7077910e+01
  -3.3618000e+00  -9.3287000e+00   2.5915310e+01
  -3.2962000e+00  -1.0824400e+01   3.0635210e+01
  -4.4503000e+00  -9.7867000e+00   2.8320810e+01
  -3.8162000e+00  -1.0314800e+01   2.9451910e+01
  -3.8400000e+00  -8.5188000e+00   2.3594710e+01
  -5.1846000e+00  -8.4189000e+00   2.4563110e+01
  -4.0431000e+00  -8.8522000e+00   2.4899610e+01
  -5.1368000e+00  -9.2276000e+00   2.7203610e+01
  -4.9022000e+00  -8.9317000e+00   2.5971510e+01
  -2.0127000e+00  -9.4901000e+00   2.5650810e+01
  -2.7895000e+00  -9.0353000e+00   2.4542210e+01
  -3.0606000e+00  -8.2494000e+00   2.2207810e+01
  -2.3393000e+00  -8.7101000e+00   2.3285610e+01
  -1.7122000e+00  -8.3633000e+00   2.1998110e+01
  -5.9480000e-01  -9.5723000e+00   2.5452610e+01
   2.5100000e-02  -9.1870000e+00   2.4259010e+01
  -1.5330000e-01  -8.4378000e+00   2.2005110e+01
  -1.4138000e+00  -9.1610000e+00   2.4361610e+01
  -8.6430000e-01  -8.8016000e+00   2.3131910e+01
  -1.6336000e+00  -1.0383500e+01   2.8199310e+01
  -2.4442000e+00  -1.0633400e+01   2.9436210e+01
  -3.0683000e+00  -1.0119400e+01   2.8232710e+01
  -1.1991000e+00  -9.9308000e+00   2.6695210e+01
  -2.4746000e+00  -9.8511000e+00   2.7016610e+01
  -1.0999000e+00  -1.0897300e+01   2.9507210e+01
   3.7490000e-01  -1.1125500e+01   2.9835510e+01
  -2.7900000e-02  -1.0714200e+01   2.8688710e+01
   2.5600000e-01  -9.9660000e+00   2.6505410e+01
  -4.2220000e-01  -1.0317000e+01   2.7606810e+01
  -7.9704000e+00  -9.3487000e+00   3.2012210e+01
  -8.6107000e+00  -9.2967000e+00   3.3282710e+01
  -9.6911000e+00  -8.6031000e+00   3.3418810e+01
  -8.4906000e+00  -8.7521000e+00   3.0859310e+01
  -9.1783000e+00  -8.6366000e+00   3.2119310e+01
  -6.7252000e+00  -9.9822000e+00   3.1929610e+01
  -6.1874000e+00  -1.0545000e+01   3.3093710e+01
  -5.9544000e+00  -9.9716000e+00   3.0701710e+01
  -7.4355000e+00  -9.9608000e+00   3.3188010e+01
  -7.2436000e+00  -9.4033000e+00   3.0768310e+01
  -9.2566000e+00  -9.2022000e+00   3.4625510e+01
  -8.8603000e+00  -9.7157000e+00   3.5814110e+01
  -1.1047700e+01  -8.0519000e+00   3.6077710e+01
  -9.9866000e+00  -8.9328000e+00   3.5953010e+01
  -1.0323700e+01  -8.4221000e+00   3.4761710e+01
  -6.4690000e+00  -1.1038000e+01   3.5557210e+01
  -5.7173000e+00  -1.1079300e+01   3.4291010e+01
  -6.9355000e+00  -1.0515900e+01   3.4372110e+01
  -8.1217000e+00  -9.8948000e+00   3.4478210e+01
  -7.6917000e+00  -1.0412900e+01   3.5673910e+01
  -2.3327000e+00  -1.1827300e+01   3.3047510e+01
  -1.8800000e+00  -1.2276800e+01   3.4176210e+01
  -7.2700000e-02  -1.1856000e+01   3.2070010e+01
  -9.0070000e-01  -1.2173300e+01   3.3321810e+01
   4.0000000e-01  -1.2309800e+01   3.3320910e+01
  -3.8765000e+00  -1.2099900e+01   3.5426410e+01
  -3.2261000e+00  -1.2607400e+01   3.6517610e+01
   4.8600000e-02  -1.2664800e+01   3.4492910e+01
  -3.1690000e+00  -1.1992800e+01   3.4254910e+01
  -2.4889000e+00  -1.2510300e+01   3.5411610e+01
  -4.1115000e+00  -1.0982200e+01   3.1842410e+01
  -4.6308000e+00  -1.0446500e+01   3.0654910e+01
  -1.9477000e+00  -1.1152900e+01   3.0719910e+01
  -2.7577000e+00  -1.1339300e+01   3.1836910e+01
  -6.2870000e-01  -1.1379700e+01   3.0807410e+01
  -5.4289000e+00  -1.0526700e+01   3.1866210e+01
  -5.2027000e+00  -1.1609700e+01   3.5477010e+01
  -4.9132000e+00  -1.1071500e+01   3.3062110e+01
  -4.4596000e+00  -1.1585700e+01   3.4255910e+01
  -1.3963000e+00  -1.1674600e+01   3.2032610e+01
  -3.6324000e+00  -1.1494600e+01   3.3027310e+01
  -1.2244800e+01  -3.6116000e+00   2.3502710e+01
  -1.2164900e+01  -3.1679000e+00   2.2199310e+01
  -1.1287200e+01  -3.7983000e+00   2.1355910e+01
  -1.1318600e+01  -4.2828000e+00   2.2614810e+01
  -1.0543000e+01  -5.1722000e+00   2.3160510e+01
  -1.2501300e+01  -3.8016000e+00   2.4865210e+01
  -1.1840100e+01  -4.7257000e+00   2.5499510e+01
  -1.0721300e+01  -5.5412000e+00   2.4839310e+01
  -1.1486600e+01  -4.6271000e+00   2.4079910e+01
  -1.1224100e+01  -5.5091000e+00   2.6186810e+01
  -1.4334500e+01  -4.3200000e-02   2.2616710e+01
  -1.4136800e+01   3.5070000e-01   2.1373010e+01
  -1.3569100e+01  -8.4960000e-01   2.1650010e+01
  -1.3700100e+01  -1.3659000e+00   2.3012210e+01
  -1.2900700e+01  -2.0000000e+00   2.1816710e+01
  -1.3889200e+01  -1.7469000e+00   2.4517910e+01
  -1.4180000e+01  -1.8680000e+00   2.6027510e+01
  -1.3397700e+01  -2.8822000e+00   2.5514510e+01
  -1.3132700e+01  -2.7649000e+00   2.4228610e+01
  -1.2998800e+01  -2.4479000e+00   2.3058210e+01
  -6.6651000e+00  -6.9362000e+00   2.1384010e+01
  -7.9744000e+00  -6.5884000e+00   2.2228110e+01
  -1.0222600e+01  -4.9281000e+00   2.1709110e+01
  -9.3679000e+00  -5.8545000e+00   2.2524910e+01
  -8.9189000e+00  -5.7327000e+00   2.1293710e+01
  -5.2892000e+00  -8.0002000e+00   2.3233910e+01
  -4.3070000e+00  -8.0438000e+00   2.2447810e+01
  -4.0695000e+00  -7.7312000e+00   2.1219710e+01
  -6.6180000e+00  -7.3489000e+00   2.2675610e+01
  -5.4593000e+00  -7.5458000e+00   2.1888610e+01
  -8.7128000e+00  -6.5779000e+00   2.3548710e+01
  -8.9513000e+00  -7.1447000e+00   2.6058310e+01
  -1.0170000e+01  -6.3215000e+00   2.6035610e+01
  -9.4815000e+00  -6.4896000e+00   2.4902210e+01
  -9.8503000e+00  -5.9226000e+00   2.3847810e+01
  -7.6250000e+00  -7.8677000e+00   2.6077910e+01
  -6.3037000e+00  -7.8645000e+00   2.4003110e+01
  -7.1624000e+00  -7.7417000e+00   2.4859610e+01
  -7.5544000e+00  -7.1969000e+00   2.3579710e+01
  -8.3155000e+00  -7.1720000e+00   2.4838810e+01
  -1.3517800e+01  -3.8282000e+00   2.9124610e+01
  -1.3882700e+01  -3.7130000e+00   3.0679610e+01
  -1.4293900e+01  -2.8572000e+00   2.9729610e+01
  -1.3620700e+01  -3.0160000e+00   2.6833910e+01
  -1.3931800e+01  -2.9760000e+00   2.8202110e+01
  -1.2721200e+01  -5.2875000e+00   3.1137610e+01
  -1.2606600e+01  -4.8295000e+00   2.8657510e+01
  -1.2729300e+01  -4.0095000e+00   2.6294710e+01
  -1.3083500e+01  -4.6197000e+00   3.0077010e+01
  -1.3064700e+01  -4.0162000e+00   2.7684810e+01
  -1.3647900e+01  -4.7707000e+00   3.4051310e+01
  -1.3666700e+01  -4.9878000e+00   3.5381210e+01
  -1.4349000e+01  -3.8762000e+00   3.4662510e+01
  -1.4002500e+01  -4.0895000e+00   3.3090810e+01
  -1.4327000e+01  -3.3905000e+00   3.2101510e+01
  -1.2886300e+01  -6.0590000e+00   3.5849710e+01
  -1.2364100e+01  -6.1976000e+00   3.3372110e+01
  -1.2972200e+01  -5.7070000e+00   3.4422310e+01
  -1.3510900e+01  -4.4668000e+00   3.1738010e+01
  -1.3134600e+01  -5.1917000e+00   3.2848010e+01
  -1.1366900e+01  -6.9372000e+00   3.2241810e+01
  -1.1532200e+01  -7.0792000e+00   3.3546310e+01
  -1.1321400e+01  -7.5574000e+00   3.4868710e+01
  -1.2199600e+01  -6.6616000e+00   3.4750610e+01
  -1.2051400e+01  -7.0686000e+00   3.6109510e+01
  -1.1637300e+01  -5.7663000e+00   2.8466910e+01
  -1.2080200e+01  -4.9923000e+00   2.7195410e+01
  -1.2310400e+01  -5.9753000e+00   3.2125610e+01
  -1.1733100e+01  -6.2762000e+00   3.0946510e+01
  -1.2158500e+01  -5.5782000e+00   2.9792810e+01
  -9.4211000e+00  -7.5254000e+00   2.8470810e+01
  -8.6607000e+00  -7.6454000e+00   2.7246610e+01
  -9.6667000e+00  -7.9988000e+00   3.0959910e+01
  -1.0332000e+01  -7.8245000e+00   3.2253510e+01
  -1.0667300e+01  -7.8700000e+00   3.3572910e+01
  -9.8383000e+00  -6.9029000e+00   2.7242510e+01
  -1.0978100e+01  -6.0509000e+00   2.7311610e+01
  -1.0537900e+01  -6.6935000e+00   2.8472910e+01
  -1.1148800e+01  -6.5017000e+00   2.9695710e+01
  -1.0731500e+01  -7.1809000e+00   3.0981010e+01
  -1.0098900e+01  -7.3706000e+00   2.9709710e+01
  -1.8949900e+01  -1.6899700e+01   4.2271410e+01
  -1.8790500e+01  -1.6788100e+01   4.0958110e+01
  -1.8645900e+01  -1.6664400e+01   3.9659310e+01
  -1.8486600e+01  -1.6551800e+01   3.8417710e+01
  -1.8403400e+01  -1.6340300e+01   3.7193110e+01
  -1.7992500e+01  -1.7743000e+01   4.1599310e+01
  -1.7017400e+01  -1.8533100e+01   4.0903410e+01
  -1.7531000e+01  -1.7274800e+01   3.7575210e+01
  -1.7821700e+01  -1.7612900e+01   4.0248310e+01
  -1.7637200e+01  -1.7489600e+01   3.8897910e+01
  -1.8396100e+01  -1.7910500e+01   4.4231710e+01
  -1.8657900e+01  -1.7923800e+01   4.5527610e+01
  -1.9617100e+01  -1.6973400e+01   4.6115710e+01
  -1.9379200e+01  -1.6960900e+01   4.4842010e+01
  -1.9145200e+01  -1.6940200e+01   4.3562210e+01
  -1.7642200e+01  -1.8848700e+01   4.4954110e+01
  -1.7106000e+01  -1.9603200e+01   4.5873210e+01
  -1.7373700e+01  -1.8812900e+01   4.3642410e+01
  -1.7191400e+01  -1.8685000e+01   4.2276910e+01
  -1.8167000e+01  -1.7863200e+01   4.2935910e+01
  -1.8585000e+01  -1.8899100e+01   4.9095010e+01
  -1.8261600e+01  -1.8895700e+01   4.7731610e+01
  -1.8022200e+01  -1.8800900e+01   4.6359010e+01
  -1.7640800e+01  -1.9790100e+01   4.8656910e+01
  -1.7350300e+01  -1.9715200e+01   4.7264810e+01
  -1.8049800e+01  -2.0020400e+01   5.1280610e+01
  -1.8871500e+01  -1.9192700e+01   5.1552810e+01
  -1.7153100e+01  -2.0795700e+01   5.0737510e+01
  -1.6949800e+01  -2.0682700e+01   4.9459010e+01
  -1.8007600e+01  -1.9760700e+01   5.0027310e+01
  -1.9993700e+01  -1.7122300e+01   4.8567110e+01
  -1.9851700e+01  -1.6992300e+01   4.7372810e+01
  -1.8932800e+01  -1.7938400e+01   4.6861610e+01
  -1.9525200e+01  -1.7922600e+01   4.9477610e+01
  -1.9154500e+01  -1.8017900e+01   4.8157710e+01
  -2.0488100e+01  -1.6757900e+01   4.9604410e+01
  -2.0952700e+01  -1.6439000e+01   5.0802810e+01
  -2.0061400e+01  -1.7558800e+01   5.0614110e+01
  -1.9031600e+01  -1.8733800e+01   5.0402510e+01
  -1.9719900e+01  -1.8219800e+01   5.1646510e+01
  -2.0332300e+01  -1.4836100e+01   3.9558510e+01
  -1.9759900e+01  -1.4903100e+01   3.6957710e+01
  -1.9270700e+01  -1.5594700e+01   3.7755810e+01
  -1.9580100e+01  -1.5811300e+01   4.0307510e+01
  -1.9470100e+01  -1.5658800e+01   3.8985110e+01
  -2.0627500e+01  -1.5001600e+01   4.2304710e+01
  -2.0827200e+01  -1.4987500e+01   4.3604110e+01
  -1.9904600e+01  -1.5974000e+01   4.2946510e+01
  -2.0452800e+01  -1.4965000e+01   4.0971710e+01
  -1.9717300e+01  -1.5932300e+01   4.1639210e+01
  -2.1383800e+01  -1.3252300e+01   3.7741110e+01
  -2.1744000e+01  -1.3155800e+01   3.9708810e+01
  -2.0644400e+01  -1.3932400e+01   3.6902510e+01
  -2.1066200e+01  -1.3848700e+01   3.8872110e+01
  -2.0286100e+01  -1.4597600e+01   3.8151210e+01
  -2.1959200e+01  -1.3073300e+01   4.1012510e+01
  -2.2150800e+01  -1.3009000e+01   4.2356710e+01
  -2.1510700e+01  -1.3994200e+01   4.3004810e+01
  -2.1123200e+01  -1.4041300e+01   4.0328810e+01
  -2.1315100e+01  -1.4023900e+01   4.1682010e+01
  -2.2078800e+01  -1.3954500e+01   4.6961810e+01
  -2.2205700e+01  -1.4059400e+01   4.8286610e+01
  -2.1754700e+01  -1.5310500e+01   5.0810810e+01
  -2.2134400e+01  -1.4466800e+01   4.9641410e+01
  -2.2484100e+01  -1.4198500e+01   5.0804010e+01
  -2.1886900e+01  -1.3952000e+01   4.5642010e+01
  -2.2337700e+01  -1.2960900e+01   4.3710110e+01
  -2.3123400e+01  -1.3107200e+01   5.0607210e+01
  -2.2835800e+01  -1.3298100e+01   4.9280310e+01
  -2.2829100e+01  -1.2998800e+01   4.7791310e+01
  -2.0338000e+01  -1.5982200e+01   4.5543310e+01
  -2.0108200e+01  -1.5979400e+01   4.4238910e+01
  -2.0743700e+01  -1.6089900e+01   4.8266910e+01
  -2.0559400e+01  -1.5998800e+01   4.6868910e+01
  -2.1275400e+01  -1.5713800e+01   4.9658710e+01
  -2.1025900e+01  -1.4981300e+01   4.4898110e+01
  -2.1708300e+01  -1.3961000e+01   4.4326910e+01
  -2.1228100e+01  -1.4974100e+01   4.6189910e+01
  -2.1547300e+01  -1.5097500e+01   4.8658910e+01
  -2.1391000e+01  -1.5038400e+01   4.7456510e+01
  -1.1238300e+01  -2.3455800e+01   4.3235610e+01
  -1.2368600e+01  -2.2887600e+01   4.3933510e+01
  -1.1616800e+01  -2.3851000e+01   4.5937910e+01
  -1.1408900e+01  -2.3665100e+01   4.4596610e+01
  -1.2541800e+01  -2.3086600e+01   4.5307410e+01
  -1.2101800e+01  -2.2446900e+01   4.1218810e+01
  -1.1944900e+01  -2.2241200e+01   3.9839110e+01
  -1.3626500e+01  -2.2518300e+01   4.6062910e+01
  -1.2249100e+01  -2.2657000e+01   4.2579410e+01
  -1.3459600e+01  -2.2297800e+01   4.4663110e+01
  -1.0055300e+01  -2.4007200e+01   4.2573810e+01
  -1.0025000e+01  -2.3740200e+01   4.1255810e+01
  -1.0669500e+01  -2.4578300e+01   4.6664510e+01
  -1.0234400e+01  -2.4208400e+01   4.3941710e+01
  -1.0432500e+01  -2.4403000e+01   4.5305310e+01
  -1.0825400e+01  -2.2753700e+01   3.8992410e+01
  -1.0670300e+01  -2.2478400e+01   3.7445210e+01
  -9.9175000e+00  -2.3485000e+01   3.9824310e+01
  -1.1129500e+01  -2.3218300e+01   4.1880510e+01
  -1.0994000e+01  -2.2984200e+01   4.0461410e+01
  -1.2145300e+01  -2.4164400e+01   4.8523510e+01
  -1.1845000e+01  -2.4029800e+01   4.7231210e+01
  -9.8157000e+00  -2.5228900e+01   4.7496210e+01
  -1.1020300e+01  -2.4715700e+01   4.8043410e+01
  -1.0265200e+01  -2.5322500e+01   4.8881910e+01
  -1.1579300e+01  -2.4726800e+01   4.9409810e+01
  -1.2066500e+01  -2.4724800e+01   5.0665510e+01
  -1.0004200e+01  -2.5892800e+01   5.0887610e+01
  -1.0827400e+01  -2.5327800e+01   5.0207010e+01
  -1.1130000e+01  -2.5467000e+01   5.1655110e+01
  -1.3930500e+01  -2.3064400e+01   4.8985410e+01
  -1.5035400e+01  -2.2387700e+01   4.9664410e+01
  -1.2780700e+01  -2.3287000e+01   4.6704610e+01
  -1.3836900e+01  -2.2752300e+01   4.7529510e+01
  -1.2985700e+01  -2.3506700e+01   4.8107010e+01
  -1.5322400e+01  -2.2483200e+01   5.1004810e+01
  -1.4502800e+01  -2.3293400e+01   5.1727710e+01
  -1.4156700e+01  -2.3241000e+01   5.0341310e+01
  -1.3295000e+01  -2.4020000e+01   5.1063410e+01
  -1.2935300e+01  -2.3933600e+01   4.9675910e+01
  -1.3827400e+01  -2.0675000e+01   3.8756610e+01
  -1.3712800e+01  -2.0412500e+01   3.7365710e+01
  -1.1805800e+01  -2.1699000e+01   3.7197910e+01
  -1.2808600e+01  -2.1194100e+01   3.7883110e+01
  -1.1780200e+01  -2.2027000e+01   3.8461910e+01
  -1.5120200e+01  -2.0175600e+01   4.0868210e+01
  -1.4182800e+01  -2.1024600e+01   4.1400010e+01
  -1.3068200e+01  -2.1659900e+01   4.0628310e+01
  -1.2887300e+01  -2.1473200e+01   3.9263410e+01
  -1.4016800e+01  -2.0844400e+01   4.0073210e+01
  -1.6641900e+01  -1.8205300e+01   3.8037610e+01
  -1.6775200e+01  -1.7709800e+01   3.6565610e+01
  -1.5856900e+01  -1.8545200e+01   3.6698910e+01
  -1.5618800e+01  -1.9028600e+01   3.7787910e+01
  -1.4742300e+01  -1.9515400e+01   3.6924210e+01
  -1.6837400e+01  -1.8377400e+01   3.9497710e+01
  -1.6020600e+01  -1.9286900e+01   4.0278010e+01
  -1.5844800e+01  -1.9129400e+01   3.8977910e+01
  -1.4948800e+01  -2.0004300e+01   3.9547110e+01
  -1.4719400e+01  -1.9870200e+01   3.8243310e+01
  -1.5397900e+01  -2.0853300e+01   4.4735810e+01
  -1.5469600e+01  -2.0511600e+01   4.3519610e+01
  -1.6558600e+01  -1.9765600e+01   4.4353710e+01
  -1.6367500e+01  -1.9612900e+01   4.2968810e+01
  -1.6184100e+01  -1.9456600e+01   4.1613210e+01
  -1.3344100e+01  -2.2065900e+01   4.3307510e+01
  -1.3229400e+01  -2.1844500e+01   4.1978310e+01
  -1.5290600e+01  -2.0348600e+01   4.2196810e+01
  -1.4407600e+01  -2.1455700e+01   4.4020210e+01
  -1.4350500e+01  -2.1202500e+01   4.2732010e+01
  -1.6122200e+01  -2.1617500e+01   5.0231310e+01
  -1.6455800e+01  -2.1635500e+01   5.1558910e+01
  -1.6646800e+01  -2.0617100e+01   4.8144410e+01
  -1.6403500e+01  -2.0495600e+01   4.6812210e+01
  -1.6230400e+01  -2.0331800e+01   4.5480910e+01
  -1.4821300e+01  -2.2201400e+01   4.8291410e+01
  -1.4626900e+01  -2.1976000e+01   4.6834710e+01
  -1.4494800e+01  -2.1718900e+01   4.5388610e+01
  -1.5871600e+01  -2.1503800e+01   4.8919810e+01
  -1.5440400e+01  -2.1167500e+01   4.6154110e+01
  -1.5625400e+01  -2.1363400e+01   4.7556010e+01
  -5.1521000e+00  -2.6105100e+01   4.2167610e+01
  -4.7499000e+00  -2.5996200e+01   4.0892510e+01
  -3.6640000e+00  -2.5819800e+01   3.8321910e+01
  -4.2103000e+00  -2.5919100e+01   3.9592210e+01
  -3.8070000e+00  -2.6486800e+01   4.1883910e+01
  -6.4958000e+00  -2.5671400e+01   4.2503410e+01
  -6.7323000e+00  -2.5846000e+01   4.3850010e+01
  -4.3693000e+00  -2.6804800e+01   4.4481810e+01
  -4.0504000e+00  -2.6655200e+01   4.3203310e+01
  -5.4052000e+00  -2.6261200e+01   4.3443610e+01
  -6.7772000e+00  -2.5066000e+01   4.0038410e+01
  -6.3179000e+00  -2.4962200e+01   3.8687110e+01
  -4.4932000e+00  -2.5301900e+01   3.7230010e+01
  -5.5320000e+00  -2.5503900e+01   3.9820110e+01
  -5.0204000e+00  -2.5414500e+01   3.8502110e+01
  -8.0015000e+00  -2.5373500e+01   4.4178410e+01
  -9.2238000e+00  -2.4911400e+01   4.4722010e+01
  -7.7759000e+00  -2.5197400e+01   4.2795710e+01
  -6.1276000e+00  -2.5549400e+01   4.1171610e+01
  -7.5052000e+00  -2.5040000e+01   4.1412810e+01
  -7.5696000e+00  -2.4463900e+01   3.8873510e+01
  -7.9295000e+00  -2.4582200e+01   4.0173010e+01
  -9.0292000e+00  -2.4716700e+01   4.3332010e+01
  -8.9534000e+00  -2.4188600e+01   4.0676010e+01
  -8.8084000e+00  -2.4536800e+01   4.1944910e+01
  -8.0173000e+00  -2.3720900e+01   3.6676110e+01
  -9.3747000e+00  -2.3117900e+01   3.7035810e+01
  -9.7414000e+00  -2.3240700e+01   3.8358310e+01
  -8.8196000e+00  -2.3942500e+01   3.9246010e+01
  -8.4678000e+00  -2.3814400e+01   3.7940110e+01
  -7.1373000e+00  -2.4357900e+01   3.7579510e+01
  -5.8227000e+00  -2.4860800e+01   3.7378110e+01
  -4.6942000e+00  -1.3540200e+01   4.3810210e+01
  -3.6749000e+00  -1.3487600e+01   4.1223210e+01
  -4.2359000e+00  -1.3507300e+01   4.2500610e+01
  -3.5999000e+00  -1.3014100e+01   3.8830910e+01
  -4.3198000e+00  -1.3010400e+01   4.0115910e+01
  -4.9560000e+00  -1.2972500e+01   4.1423910e+01
  -5.9025000e+00  -1.2930200e+01   4.4041210e+01
  -5.4817000e+00  -1.2934100e+01   4.2741710e+01
  -1.8871000e+00  -2.6669900e+01   4.0248010e+01
  -2.4332000e+00  -2.6784300e+01   4.1523310e+01
  -1.5377000e+00  -2.7402100e+01   4.3755210e+01
  -2.7231000e+00  -2.6953100e+01   4.2838110e+01
  -2.8912000e+00  -2.7155500e+01   4.4172910e+01
  -1.5795000e+00  -2.5989900e+01   3.6851810e+01
  -3.1010000e+00  -2.5694900e+01   3.7107310e+01
  -3.3507000e+00  -2.6372700e+01   4.0574310e+01
  -2.7835000e+00  -2.6273200e+01   3.9305610e+01
  -2.1982000e+00  -2.6146700e+01   3.8073010e+01
  -1.0241000e+00  -2.7036800e+01   4.1308810e+01
   2.8680000e-01  -2.7253600e+01   4.1449210e+01
  -4.2200000e-01  -2.7736800e+01   4.4515210e+01
  -1.3841000e+00  -2.7185100e+01   4.2471210e+01
  -1.6230000e-01  -2.7487700e+01   4.2947410e+01
   2.3120000e-01  -2.6748000e+01   3.8918910e+01
  -7.0170000e-01  -2.6360900e+01   3.7765710e+01
  -1.2540000e+00  -2.6543600e+01   3.9016910e+01
  -4.2780000e-01  -2.6909400e+01   4.0133010e+01
  -6.7400000e-02  -1.5237100e+01   4.4450010e+01
  -1.7775000e+00  -1.3809700e+01   3.9922610e+01
  -3.0476000e+00  -1.3458700e+01   3.9967010e+01
  -2.6350000e+00  -1.3030500e+01   3.7550410e+01
  -2.3080000e+00  -1.3412600e+01   3.8752510e+01
  -1.2868000e+00  -1.3400700e+01   3.7714110e+01
  -8.0500000e-01  -1.4192000e+01   4.0617810e+01
   1.9420000e-01  -1.4108800e+01   3.9522210e+01
  -1.6100000e-01  -1.3372900e+01   3.6916310e+01
  -9.5980000e-01  -1.3781300e+01   3.8996010e+01
   9.9600000e-02  -1.3743900e+01   3.8145310e+01
  -2.1437000e+00  -1.4411500e+01   4.3219610e+01
  -2.5487000e+00  -1.4547800e+01   4.4540410e+01
  -3.4421000e+00  -1.4036200e+01   4.3551210e+01
  -2.9277000e+00  -1.3964700e+01   4.2266310e+01
  -2.3375000e+00  -1.3904400e+01   4.1052110e+01
  -1.2984000e+00  -1.4878300e+01   4.4231310e+01
   2.7670000e-01  -1.5000900e+01   4.3130710e+01
  -8.7900000e-01  -1.4735300e+01   4.3062610e+01
  -1.8340000e-01  -1.4618600e+01   4.1882510e+01
   5.1520000e-01  -1.4485500e+01   4.0841410e+01
  -1.5168000e+00  -1.4317400e+01   4.1917310e+01
  -6.8284000e+00  -2.6895000e+01   4.9051610e+01
  -6.4738000e+00  -2.6723600e+01   4.7620310e+01
  -7.7161000e+00  -2.6313600e+01   4.8000410e+01
  -7.3515000e+00  -2.6160100e+01   4.6597310e+01
  -7.0408000e+00  -2.5995700e+01   4.5210010e+01
  -5.5592000e+00  -2.7258800e+01   4.8614810e+01
  -5.2150000e+00  -2.7069000e+01   4.7190410e+01
  -5.7440000e+00  -2.6405400e+01   4.4769710e+01
  -6.1079000e+00  -2.6557000e+01   4.6175210e+01
  -4.8149000e+00  -2.6919100e+01   4.5786810e+01
  -7.2592000e+00  -2.7010600e+01   5.0475810e+01
  -8.2190000e+00  -2.6861600e+01   5.1779110e+01
  -9.4290000e+00  -2.5916500e+01   4.9677310e+01
  -8.6610000e+00  -2.6468600e+01   5.0655110e+01
  -8.1040000e+00  -2.6448600e+01   4.9383810e+01
  -4.6511000e+00  -2.7937700e+01   5.0810810e+01
  -4.5491000e+00  -2.7726700e+01   4.9472310e+01
  -5.8470000e+00  -2.7681600e+01   5.1438610e+01
  -5.9072000e+00  -2.7421300e+01   5.0080410e+01
  -6.9643000e+00  -2.7347500e+01   5.1757910e+01
  -8.2578000e+00  -2.5551700e+01   4.5591310e+01
  -9.4745000e+00  -2.5083900e+01   4.6100110e+01
  -8.9714000e+00  -2.5847900e+01   4.8374310e+01
  -8.5828000e+00  -2.5714500e+01   4.6996410e+01
  -6.2305000e+00  -1.4282600e+01   5.1033410e+01
  -6.4880000e+00  -1.3023600e+01   4.6657010e+01
  -6.8742000e+00  -1.3002000e+01   4.7886910e+01
  -7.4151000e+00  -1.3470400e+01   5.1216210e+01
  -6.8483000e+00  -1.3555300e+01   5.0092910e+01
  -7.2103000e+00  -1.3020500e+01   4.9074910e+01
  -4.8652000e+00  -1.4521200e+01   4.8906810e+01
  -4.5264000e+00  -1.4380300e+01   4.7540810e+01
  -4.2898000e+00  -1.5606900e+01   5.1311210e+01
  -5.7490000e+00  -1.4235400e+01   4.9834510e+01
  -5.0050000e+00  -1.4906200e+01   5.0476310e+01
  -5.0542000e+00  -1.3604100e+01   4.5115210e+01
  -6.2140000e+00  -1.2960600e+01   4.5340310e+01
  -5.3357000e+00  -1.3699900e+01   4.6408610e+01
  -6.1150000e+00  -1.3734000e+01   4.8804910e+01
  -5.6658000e+00  -1.3761100e+01   4.7676910e+01
  -3.1814000e+00  -2.7982000e+01   4.8891910e+01
  -2.0171000e+00  -2.8363700e+01   4.9602610e+01
  -2.1827000e+00  -2.8561200e+01   5.0982810e+01
  -3.3500000e+00  -2.8181600e+01   5.0222910e+01
  -3.5452000e+00  -2.8352000e+01   5.1583610e+01
  -2.5900000e+00  -2.7613300e+01   4.6234110e+01
  -3.4042000e+00  -2.7248800e+01   4.5381010e+01
  -4.2487000e+00  -2.7549900e+01   4.8089710e+01
  -2.8930000e+00  -2.7798000e+01   4.7564010e+01
  -3.9069000e+00  -2.7378200e+01   4.6725910e+01
  -6.7610000e-01  -2.8489600e+01   4.8964310e+01
  -4.7320000e-01  -2.8259900e+01   4.7481910e+01
   1.5400000e-01  -2.8996800e+01   5.1238310e+01
   3.8280000e-01  -2.8797500e+01   4.9768710e+01
  -9.0760000e-01  -2.8705300e+01   5.0405810e+01
  -4.9850000e-01  -2.7997200e+01   4.5954510e+01
  -1.7594000e+00  -2.7602200e+01   4.5176210e+01
  -1.5686000e+00  -2.7940900e+01   4.6806910e+01
  -1.7792000e+00  -2.8158100e+01   4.8235910e+01
  -7.6800000e-02  -1.7021600e+01   5.1036110e+01
  -2.6800000e+00  -1.5713600e+01   4.9495310e+01
  -1.4032000e+00  -1.6064800e+01   4.9105310e+01
   8.8800000e-02  -1.5943400e+01   4.7159110e+01
  -1.1918000e+00  -1.5776200e+01   4.7804810e+01
  -1.2280000e-01  -1.6248600e+01   4.8505010e+01
  -3.0708000e+00  -1.5994200e+01   5.0800710e+01
  -2.4359000e+00  -1.6609100e+01   5.1790810e+01
  -1.2200000e+00  -1.6868300e+01   5.1451710e+01
  -3.2250000e-01  -1.6598700e+01   4.9868010e+01
  -1.7206000e+00  -1.6353300e+01   5.0401310e+01
  -4.1388000e+00  -1.4259900e+01   4.6169610e+01
  -3.8263000e+00  -1.4134200e+01   4.4857810e+01
  -1.4591000e+00  -1.5109100e+01   4.5448410e+01
  -2.8563000e+00  -1.4707600e+01   4.5817710e+01
  -1.2700000e-02  -1.5570900e+01   4.5729710e+01
  -3.3330000e+00  -1.4834600e+01   4.7198910e+01
  -3.9304000e+00  -1.5284300e+01   4.9882610e+01
  -3.6556000e+00  -1.5037900e+01   4.8561110e+01
  -2.4203000e+00  -1.5442000e+01   4.8175510e+01
  -9.6650000e-01  -1.5529100e+01   4.6556310e+01
  -2.1350000e+00  -1.5210400e+01   4.6818610e+01
  -1.9666900e+01  -1.8663300e+01   5.3947010e+01
  -1.9307400e+01  -1.8946000e+01   5.2792410e+01
  -1.7475000e+01  -2.0798100e+01   5.2151910e+01
  -1.8432200e+01  -1.9908600e+01   5.2667410e+01
  -1.7821100e+01  -2.0673800e+01   5.3534410e+01
  -1.8811000e+01  -1.9670500e+01   5.4050810e+01
  -1.8942000e+01  -1.9489500e+01   5.5437710e+01
  -1.8051900e+01  -2.0494500e+01   5.4846810e+01
  -1.8009400e+01  -2.0377800e+01   5.6110710e+01
  -1.8755400e+01  -1.9391800e+01   5.6645310e+01
  -2.1042400e+01  -1.6769900e+01   5.3100510e+01
  -2.1280200e+01  -1.6523800e+01   5.4369810e+01
  -2.0609800e+01  -1.7141100e+01   5.1861310e+01
  -2.0494800e+01  -1.7602200e+01   5.4172510e+01
  -2.0190900e+01  -1.7876700e+01   5.2904010e+01
  -2.1386800e+01  -1.6249200e+01   5.5636510e+01
  -2.0695500e+01  -1.6973100e+01   5.6471910e+01
  -2.0576300e+01  -1.7439400e+01   5.5427810e+01
  -1.9768400e+01  -1.8527700e+01   5.5103210e+01
  -1.9746100e+01  -1.8348300e+01   5.6291810e+01
  -2.2227700e+01  -1.4863500e+01   5.2045310e+01
  -2.2492800e+01  -1.4657900e+01   5.3931410e+01
  -2.2159600e+01  -1.4973200e+01   5.5873210e+01
  -2.2751500e+01  -1.4156300e+01   5.5055810e+01
  -2.2361100e+01  -1.4152000e+01   5.6679710e+01
  -2.2769800e+01  -1.4131600e+01   5.2917310e+01
  -2.3012000e+01  -1.3542200e+01   5.1821910e+01
  -2.3200700e+01  -1.3450900e+01   5.4004810e+01
  -2.2849200e+01  -1.3663800e+01   5.6158310e+01
  -2.2757900e+01  -1.3385600e+01   5.6678910e+01
  -2.1860900e+01  -1.5602300e+01   5.3270110e+01
  -2.1457000e+01  -1.6003200e+01   5.2012710e+01
  -2.1976900e+01  -1.5459000e+01   5.4712010e+01
  -2.2125500e+01  -1.4540000e+01   5.6680010e+01
  -1.9570100e+01  -1.4636600e+01   5.6680110e+01
  -1.9323300e+01  -1.3416700e+01   5.6678910e+01
  -1.8283000e+01  -1.3012800e+01   5.6678510e+01
  -2.1558500e+01  -1.3785800e+01   5.6679310e+01
  -2.0362100e+01  -1.3961000e+01   5.6679510e+01
  -1.8391200e+01  -1.4072900e+01   5.6679610e+01
  -1.2428000e+01  -2.4774100e+01   5.1957410e+01
  -1.3639300e+01  -2.4055200e+01   5.2387710e+01
  -1.2796600e+01  -2.4815500e+01   5.5751410e+01
  -1.2891300e+01  -2.4696100e+01   5.3309710e+01
  -1.3360600e+01  -2.4493000e+01   5.4620910e+01
  -1.4072600e+01  -2.3926300e+01   5.3617210e+01
  -1.4942300e+01  -2.3190500e+01   5.3036110e+01
  -1.5212900e+01  -2.3076900e+01   5.5721110e+01
  -1.3936200e+01  -2.4031300e+01   5.5859410e+01
  -1.4434400e+01  -2.3723400e+01   5.4814010e+01
  -1.0451900e+01  -2.5997500e+01   5.2790810e+01
  -9.5461000e+00  -2.6301100e+01   5.1866210e+01
  -9.8515000e+00  -2.6404200e+01   5.3980110e+01
  -1.0539100e+01  -2.6086600e+01   5.5196710e+01
  -9.9257000e+00  -2.6208000e+01   5.6230710e+01
  -1.1092800e+01  -2.5793900e+01   5.4083610e+01
  -1.1716800e+01  -2.5352000e+01   5.2995210e+01
  -1.2235800e+01  -2.5184500e+01   5.4411710e+01
  -1.1656300e+01  -2.5485100e+01   5.5553610e+01
  -1.0978400e+01  -2.5617400e+01   5.6586910e+01
  -1.6090600e+01  -2.2335700e+01   5.3653210e+01
  -1.6212600e+01  -2.2283600e+01   5.5033910e+01
  -1.7182000e+01  -2.1340200e+01   5.5573910e+01
  -1.6803800e+01  -2.1577000e+01   5.2916610e+01
  -1.7077200e+01  -2.1478700e+01   5.4285610e+01
  -1.5711500e+01  -2.2442200e+01   5.2311210e+01
  -1.5300700e+01  -2.3046200e+01   5.4330210e+01
  -1.0119700e+01  -1.3027000e+01   5.5113310e+01
  -1.0855000e+01  -1.3239700e+01   5.6166210e+01
  -9.7605000e+00  -1.4196800e+01   5.5919710e+01
  -1.6259600e+01  -2.2097900e+01   5.6253710e+01
  -1.7290700e+01  -1.4646600e+01   5.6680210e+01
  -1.7253900e+01  -1.3392200e+01   5.6678910e+01
  -1.6168900e+01  -1.4093600e+01   5.6679610e+01
  -1.4852000e+01  -1.3772400e+01   5.6679310e+01
  -1.2518100e+01  -1.4146500e+01   5.6679710e+01
  -1.0449900e+01  -1.4380300e+01   5.6679910e+01
  -1.0682000e+01  -1.4109000e+01   5.6679610e+01
  -1.3492000e+01  -1.3349400e+01   5.6678910e+01
  -1.1309500e+01  -1.3404900e+01   5.6678910e+01
  -1.8677600e+01  -1.9443200e+01   5.6684910e+01
  -1.8724900e+01  -1.9385200e+01   5.6684910e+01
  -1.9484400e+01  -1.8380700e+01   5.6683910e+01
  -1.8728000e+01  -1.9382000e+01   5.6684910e+01
  -1.8770800e+01  -1.9338900e+01   5.6684810e+01
  -1.7437300e+01  -1.9276200e+01   5.6684810e+01
  -1.5258000e+01  -2.0066900e+01   5.6685610e+01
  -1.4598200e+01  -1.8557900e+01   5.6684110e+01
  -1.8506200e+01  -1.8610000e+01   5.6684110e+01
  -1.6085900e+01  -1.8957300e+01   5.6684510e+01
  -1.7029800e+01  -2.1182600e+01   5.6686710e+01
  -1.6837700e+01  -2.1380300e+01   5.6686910e+01
  -1.7796700e+01  -2.0266900e+01   5.6685810e+01
  -1.7196600e+01  -2.1018500e+01   5.6686510e+01
  -1.6701900e+01  -2.0502900e+01   5.6686010e+01
  -1.5303700e+01  -2.2698800e+01   5.6688210e+01
  -1.4486600e+01  -2.3385900e+01   5.6688910e+01
  -1.5646500e+01  -2.2433800e+01   5.6687910e+01
  -1.4508500e+01  -2.1035400e+01   5.6686510e+01
  -1.6149000e+01  -2.1941200e+01   5.6687410e+01
  -1.9864800e+01  -1.5731300e+01   5.6681210e+01
  -1.9584300e+01  -1.6664600e+01   5.6682210e+01
  -1.9824400e+01  -1.7966000e+01   5.6683510e+01
  -2.0690100e+01  -1.6791000e+01   5.6682310e+01
  -2.0470400e+01  -1.7118300e+01   5.6682610e+01
  -1.8592100e+01  -1.5493600e+01   5.6681010e+01
  -2.0957700e+01  -1.5173400e+01   5.6680710e+01
  -2.1493100e+01  -1.5659400e+01   5.6681210e+01
  -2.1483000e+01  -1.5675100e+01   5.6681210e+01
  -2.1491100e+01  -1.5662600e+01   5.6681210e+01
  -1.8216600e+01  -1.7027800e+01   5.6682510e+01
  -1.6825800e+01  -1.6872500e+01   5.6682410e+01
  -1.7094200e+01  -1.8013900e+01   5.6683510e+01
  -1.4382600e+01  -1.7154000e+01   5.6682710e+01
  -1.5736600e+01  -1.7425300e+01   5.6682910e+01
  -1.6361200e+01  -1.5136900e+01   5.6680610e+01
  -1.5209400e+01  -1.5133100e+01   5.6680610e+01
  -1.7187300e+01  -1.5831200e+01   5.6681310e+01
  -1.6050500e+01  -1.6108200e+01   5.6681610e+01
  -1.5080800e+01  -1.6340900e+01   5.6681910e+01
  -1.4347200e+01  -2.3494000e+01   5.6689010e+01
  -1.3337600e+01  -2.4185000e+01   5.6689710e+01
  -1.2060600e+01  -2.4961700e+01   5.6690510e+01
  -1.3117500e+01  -2.4330300e+01   5.6689810e+01
  -1.2188600e+01  -2.4892500e+01   5.6690410e+01
  -1.3425100e+01  -2.1623400e+01   5.6687110e+01
  -1.2001500e+01  -2.0909300e+01   5.6686410e+01
  -1.3642400e+01  -2.3121300e+01   5.6688610e+01
  -1.1622700e+01  -2.3237100e+01   5.6688710e+01
  -1.2427700e+01  -2.2419100e+01   5.6687910e+01
  -1.1485400e+01  -2.5296200e+01   5.6690810e+01
  -1.1390500e+01  -2.4575600e+01   5.6690110e+01
  -9.8825000e+00  -2.5984700e+01   5.6691510e+01
  -1.0997000e+01  -2.5529600e+01   5.6691010e+01
  -1.0812700e+01  -2.5626900e+01   5.6691110e+01
  -1.0939800e+01  -2.1934700e+01   5.6687410e+01
  -9.9300000e+00  -2.1226900e+01   5.6686710e+01
  -9.5867000e+00  -2.2182800e+01   5.6687710e+01
  -1.0399800e+01  -2.3199200e+01   5.6688710e+01
  -9.9249000e+00  -2.4352300e+01   5.6689910e+01
  -1.3622100e+01  -1.7853000e+01   5.6683410e+01
  -1.3159700e+01  -1.8908400e+01   5.6684410e+01
  -1.1792300e+01  -1.8492600e+01   5.6684010e+01
  -1.2263900e+01  -1.9645400e+01   5.6685210e+01
  -1.0374400e+01  -1.8612100e+01   5.6684110e+01
  -1.4032400e+01  -1.9699100e+01   5.6685210e+01
  -1.3165700e+01  -2.0256900e+01   5.6685810e+01
  -1.0786200e+01  -2.0757200e+01   5.6686310e+01
  -1.1148500e+01  -1.9764900e+01   5.6685310e+01
  -9.7876000e+00  -2.0065800e+01   5.6685610e+01
  -1.2841500e+01  -1.5510600e+01   5.6681010e+01
  -1.3885500e+01  -1.4691700e+01   5.6680210e+01
  -1.1371000e+01  -1.4879100e+01   5.6680410e+01
  -1.0108100e+01  -1.5871400e+01   5.6681410e+01
  -9.5396000e+00  -1.5311800e+01   5.6680810e+01
  -1.4102400e+01  -1.5932800e+01   5.6681410e+01
  -1.3089100e+01  -1.6838400e+01   5.6682410e+01
  -1.2765400e+01  -1.7838800e+01   5.6683410e+01
  -1.2068200e+01  -1.7365300e+01   5.6682910e+01
  -1.0854100e+01  -1.7356600e+01   5.6682910e+01
  -1.1717300e+01  -1.6355300e+01   5.6681910e+01
  -7.6324000e+00  -2.7252000e+01   5.2952810e+01
  -8.4922000e+00  -2.7005100e+01   5.4076010e+01
  -7.1894000e+00  -2.7508200e+01   5.4182510e+01
  -8.0194000e+00  -2.7173200e+01   5.5293910e+01
  -7.6019000e+00  -2.7090100e+01   5.6494810e+01
  -9.0144000e+00  -2.6689000e+01   5.2950010e+01
  -9.2763000e+00  -2.6673400e+01   5.5144910e+01
  -9.1421000e+00  -2.3269400e+01   5.6688810e+01
  -8.8143000e+00  -2.6658200e+01   5.6404610e+01
  -7.8188000e+00  -2.3315900e+01   5.6688810e+01
  -5.0571000e+00  -2.8171900e+01   5.3599410e+01
  -4.8909000e+00  -2.8089600e+01   5.2248910e+01
  -4.8665000e+00  -2.8217900e+01   5.5129510e+01
  -5.9958000e+00  -2.7908700e+01   5.4507510e+01
  -4.4228000e+00  -2.8024900e+01   5.6596510e+01
  -6.2460000e+00  -2.7752500e+01   5.2981510e+01
  -6.7609000e+00  -2.7604900e+01   5.5559810e+01
  -5.6076000e+00  -2.7869800e+01   5.6100310e+01
  -6.2356000e+00  -2.2693300e+01   5.6688210e+01
  -4.7414000e+00  -2.2654000e+01   5.6688210e+01
  -2.5611000e+00  -2.8776600e+01   5.3556110e+01
  -2.8398000e+00  -2.8715600e+01   5.4749910e+01
  -3.9418000e+00  -2.8492700e+01   5.4218410e+01
  -2.3599000e+00  -2.8707400e+01   5.2300810e+01
  -3.7400000e+00  -2.8466300e+01   5.2907510e+01
  -2.6970000e-01  -2.9167000e+01   5.4305610e+01
   1.8430000e-01  -2.9182800e+01   5.2894310e+01
  -1.0039000e+00  -2.8907700e+01   5.1879910e+01
  -1.5590000e+00  -2.8959900e+01   5.4547710e+01
  -1.1940000e+00  -2.8997300e+01   5.3217610e+01
  -3.6579000e+00  -2.8458200e+01   5.5663510e+01
  -2.2161000e+00  -2.8728600e+01   5.5794810e+01
  -4.2014000e+00  -2.3835200e+01   5.6689310e+01
  -1.9224000e+00  -2.3295500e+01   5.6688810e+01
  -3.2158000e+00  -2.2684600e+01   5.6688210e+01
  -8.6440000e-01  -2.8980000e+01   5.5675610e+01
   4.4930000e-01  -2.9175400e+01   5.5560310e+01
  -8.9850000e-01  -2.3658200e+01   5.6689210e+01
  -7.9570000e-01  -2.2482700e+01   5.6688010e+01
   2.0120000e-01  -2.3242400e+01   5.6688810e+01
  -9.1337000e+00  -2.6350000e+01   5.6691910e+01
  -7.5585000e+00  -2.5589400e+01   5.6691110e+01
  -9.1070000e+00  -2.5400400e+01   5.6690910e+01
  -7.9982000e+00  -2.4558600e+01   5.6690110e+01
  -8.7927000e+00  -2.4205000e+01   5.6689710e+01
  -6.0429000e+00  -2.5071800e+01   5.6690610e+01
  -5.1302000e+00  -2.5803600e+01   5.6691310e+01
  -5.4655000e+00  -2.3840400e+01   5.6689410e+01
  -6.8424000e+00  -2.4197400e+01   5.6689710e+01
  -4.9268000e+00  -2.4684100e+01   5.6690210e+01
  -7.5283000e+00  -2.6990300e+01   5.6692510e+01
  -7.0461000e+00  -2.7189000e+01   5.6692710e+01
  -8.7275000e+00  -2.6513700e+01   5.6692010e+01
  -7.8033000e+00  -2.6885600e+01   5.6692410e+01
  -6.6066000e+00  -2.6548700e+01   5.6692110e+01
  -4.5136000e+00  -2.7941400e+01   5.6693410e+01
  -4.3587000e+00  -2.7980500e+01   5.6693510e+01
  -5.4150000e+00  -2.7623200e+01   5.6693110e+01
  -6.4303000e+00  -2.7363400e+01   5.6692910e+01
  -6.1395000e+00  -2.7474400e+01   5.6693010e+01
  -3.6901000e+00  -2.8162100e+01   5.6693710e+01
  -3.0741000e+00  -2.8300400e+01   5.6693810e+01
  -2.4899000e+00  -2.7418100e+01   5.6692910e+01
  -1.2315000e+00  -2.7507000e+01   5.6693010e+01
   3.6400000e-02  -2.7477800e+01   5.6693010e+01
  -2.9519000e+00  -2.8326300e+01   5.6693810e+01
  -1.6542000e+00  -2.8577700e+01   5.6694110e+01
  -1.3950000e-01  -2.8780800e+01   5.6694310e+01
  -1.5017000e+00  -2.8602500e+01   5.6694110e+01
  -2.3600000e-01  -2.8768900e+01   5.6694310e+01
  -3.9954000e+00  -2.5012400e+01   5.6690510e+01
  -2.9792000e+00  -2.4216200e+01   5.6689710e+01
  -2.7190000e-01  -2.4582200e+01   5.6690110e+01
  -1.6698000e+00  -2.4773400e+01   5.6690310e+01
   5.2960000e-01  -2.5639900e+01   5.6691210e+01
  -2.9388000e+00  -2.5810500e+01   5.6691310e+01
  -4.1937000e+00  -2.6284100e+01   5.6691810e+01
  -3.8015000e+00  -2.7379500e+01   5.6692910e+01
  -1.8317000e+00  -2.6200800e+01   5.6691710e+01
   2.4270000e-01  -2.6461700e+01   5.6692010e+01
  -6.5500000e-01  -2.6058700e+01   5.6691610e+01
  -7.4468000e+00  -1.5817700e+01   5.5441010e+01
  -6.7137000e+00  -1.5494900e+01   5.4297410e+01
  -5.4560000e+00  -1.6101500e+01   5.3914210e+01
  -6.1095000e+00  -1.6448300e+01   5.5049710e+01
  -5.5108000e+00  -1.7460900e+01   5.5825510e+01
  -9.4633000e+00  -1.5374500e+01   5.6667710e+01
  -9.4812000e+00  -1.5378900e+01   5.6680910e+01
  -6.8336000e+00  -1.6842400e+01   5.6060610e+01
  -8.2347000e+00  -1.6295800e+01   5.6516410e+01
  -9.4600000e+00  -1.5399100e+01   5.6680910e+01
  -7.2933000e+00  -1.4548700e+01   5.3414610e+01
  -7.8549000e+00  -1.3617500e+01   5.2475810e+01
  -5.5143000e+00  -1.5069300e+01   5.1799010e+01
  -6.7471000e+00  -1.4372400e+01   5.2194310e+01
  -6.1015000e+00  -1.5229600e+01   5.3065610e+01
  -9.4481000e+00  -1.2920400e+01   5.4027710e+01
  -9.0182000e+00  -1.3984200e+01   5.4884310e+01
  -8.6221000e+00  -1.5105800e+01   5.5718710e+01
  -7.8982000e+00  -1.4773800e+01   5.4595710e+01
  -8.4068000e+00  -1.3752100e+01   5.3695710e+01
  -3.5136000e+00  -1.7402700e+01   5.4412210e+01
  -2.9518000e+00  -1.6965900e+01   5.3148110e+01
  -4.8600000e+00  -1.5818100e+01   5.2660010e+01
  -4.2103000e+00  -1.6595900e+01   5.3549110e+01
  -3.6393000e+00  -1.6278100e+01   5.2225010e+01
  -7.5400000e-01  -1.7885800e+01   5.3550710e+01
   1.5800000e-01  -1.8504100e+01   5.4351910e+01
  -3.1450000e-01  -1.7442900e+01   5.2331510e+01
  -2.1309000e+00  -1.7668800e+01   5.3928810e+01
  -1.6484000e+00  -1.7247400e+01   5.2718610e+01
  -3.0949000e+00  -1.8826700e+01   5.5978210e+01
  -5.0779000e+00  -1.8502400e+01   5.6607410e+01
  -4.7989000e+00  -1.7026000e+01   5.4766410e+01
  -2.6689000e+00  -1.8178800e+01   5.5024510e+01
  -4.1393000e+00  -1.8020000e+01   5.5605810e+01
  -9.9310000e-01  -1.9833100e+01   5.6389610e+01
   4.6810000e-01  -1.9901000e+01   5.6166010e+01
  -3.6450000e-01  -1.9116700e+01   5.5437010e+01
  -1.2591000e+00  -1.8392500e+01   5.4698110e+01
  -1.7876000e+00  -1.9030400e+01   5.5744510e+01
  -8.1187000e+00  -1.7748900e+01   5.6683310e+01
  -9.2977000e+00  -1.7388200e+01   5.6682910e+01
  -8.4606000e+00  -1.6350100e+01   5.6681910e+01
  -7.9582000e+00  -1.6732800e+01   5.6682210e+01
  -8.2859000e+00  -1.6525400e+01   5.6682010e+01
  -6.8468000e+00  -1.8477000e+01   5.6684010e+01
  -5.6367000e+00  -1.8274000e+01   5.6683810e+01
  -7.3270000e+00  -1.7243800e+01   5.6682810e+01
  -6.4249000e+00  -1.7822200e+01   5.6683310e+01
  -6.2717000e+00  -1.7924800e+01   5.6683410e+01
  -8.7681000e+00  -2.1210500e+01   5.6686710e+01
  -8.4895000e+00  -2.2388200e+01   5.6687910e+01
  -9.0068000e+00  -1.8881900e+01   5.6684410e+01
  -8.3875000e+00  -2.0019800e+01   5.6685510e+01
  -7.9405000e+00  -1.9069900e+01   5.6684610e+01
  -7.5327000e+00  -2.1949900e+01   5.6687510e+01
  -6.5439000e+00  -2.1164100e+01   5.6686710e+01
  -7.5507000e+00  -2.0942800e+01   5.6686510e+01
  -6.0333000e+00  -1.9116800e+01   5.6684610e+01
  -6.9568000e+00  -1.9879400e+01   5.6685410e+01
  -4.0832000e+00  -1.9843500e+01   5.6685310e+01
  -5.4623000e+00  -2.0002600e+01   5.6685510e+01
  -5.2490000e+00  -2.1470200e+01   5.6687010e+01
  -4.7212000e+00  -2.0700900e+01   5.6686210e+01
  -3.9838000e+00  -2.1348300e+01   5.6686910e+01
  -5.0720000e+00  -1.8616700e+01   5.6684110e+01
  -5.1816000e+00  -1.8558900e+01   5.6684110e+01
  -4.0337000e+00  -1.9164500e+01   5.6684710e+01
  -3.9626000e+00  -1.9203300e+01   5.6684710e+01
  -3.9693000e+00  -1.9200700e+01   5.6684710e+01
  -2.9119000e+00  -2.0445700e+01   5.6686010e+01
  -2.0104000e+00  -2.0855400e+01   5.6686410e+01
  -1.9416000e+00  -2.2006100e+01   5.6687510e+01
  -8.3850000e-01  -2.1117900e+01   5.6686610e+01
  -2.8356000e+00  -2.1501100e+01   5.6687010e+01
  -2.4101000e+00  -1.9813000e+01   5.6685310e+01
  -2.5302000e+00  -1.9782400e+01   5.6685310e+01
  -2.4968000e+00  -1.9794000e+01   5.6685310e+01
  -1.1752000e+00  -2.0163700e+01   5.6685710e+01
  -5.8220000e-01  -2.0249600e+01   5.6685810e+01
   1.1440000e-01  -2.0400100e+01   5.6685910e+01
  -2.6466700e+01  -5.4190000e+00   3.6799010e+01
  -2.6287700e+01  -5.8711000e+00   3.7991710e+01
  -2.6383300e+01  -5.7769000e+00   4.2499110e+01
  -2.6685500e+01  -5.0903000e+00   3.9061410e+01
  -2.6465700e+01  -5.5898000e+00   4.0188010e+01
  -2.6890900e+01  -4.6080000e+00   3.7863010e+01
  -2.7079000e+01  -4.1270000e+00   3.6672210e+01
  -2.7037300e+01  -4.3113000e+00   4.0121510e+01
  -2.6741900e+01  -4.9579000e+00   4.1324510e+01
  -2.6928900e+01  -4.4779000e+00   4.2488910e+01
  -2.5449000e+01  -7.4567000e+00   3.8322010e+01
  -2.5139400e+01  -7.8758000e+00   3.7172210e+01
  -2.5156400e+01  -8.2327000e+00   4.2021210e+01
  -2.5394200e+01  -7.6447000e+00   3.9629910e+01
  -2.5546200e+01  -7.4615000e+00   4.1107710e+01
  -2.5812200e+01  -6.7121000e+00   3.7158810e+01
  -2.6029700e+01  -6.4296000e+00   3.9021410e+01
  -2.5904900e+01  -6.7286000e+00   4.0211610e+01
  -2.6183700e+01  -6.2022000e+00   4.1335510e+01
  -2.5798700e+01  -7.0189000e+00   4.2351210e+01
  -2.3571800e+01  -1.0601400e+01   3.9522710e+01
  -2.3898000e+01  -9.8267000e+00   3.7266410e+01
  -2.4800900e+01  -8.6214000e+00   3.9094610e+01
  -2.4067800e+01  -9.7508000e+00   3.8636610e+01
  -2.4626600e+01  -8.7917000e+00   3.7829610e+01
  -2.2352400e+01  -1.1988100e+01   3.7474910e+01
  -2.2033100e+01  -1.2600300e+01   3.8638410e+01
  -2.3029100e+01  -1.0972400e+01   3.6744610e+01
  -2.3281400e+01  -1.0819900e+01   3.8048210e+01
  -2.2821500e+01  -1.1592100e+01   3.8945610e+01
  -2.3868100e+01  -1.0316400e+01   4.1037810e+01
  -2.4095900e+01  -1.0096000e+01   4.2517910e+01
  -2.4941500e+01  -8.5126000e+00   4.0562810e+01
  -2.4296700e+01  -9.5397000e+00   4.0027410e+01
  -2.4525600e+01  -9.3009000e+00   4.1538610e+01
  -2.2725600e+01  -1.2097600e+01   4.1519210e+01
  -2.2495400e+01  -1.2215000e+01   4.0061710e+01
  -2.2918600e+01  -1.2003500e+01   4.2959010e+01
  -2.3191800e+01  -1.1292100e+01   4.0552110e+01
  -2.3421300e+01  -1.1120400e+01   4.2060210e+01
  -2.6250700e+01  -6.1045000e+00   4.4735210e+01
  -2.6478800e+01  -5.6059000e+00   4.5967810e+01
  -2.6995500e+01  -4.2563000e+00   4.5996710e+01
  -2.6592200e+01  -5.2794000e+00   4.3635210e+01
  -2.6797100e+01  -4.7889000e+00   4.4821110e+01
  -2.5397200e+01  -7.8515000e+00   4.3348110e+01
  -2.5194100e+01  -8.4250000e+00   4.5687810e+01
  -2.6003800e+01  -6.6195000e+00   4.3606310e+01
  -2.5941900e+01  -6.8543000e+00   4.5802510e+01
  -2.5617000e+01  -7.4892000e+00   4.4688210e+01
  -2.6169600e+01  -6.4344000e+00   4.7186110e+01
  -2.6512200e+01  -5.6372000e+00   4.8283610e+01
  -2.6938000e+01  -4.4371000e+00   4.8397010e+01
  -2.6643400e+01  -5.3346000e+00   4.9607710e+01
  -2.6713200e+01  -5.0475000e+00   4.7122210e+01
  -2.5654500e+01  -7.8631000e+00   4.9247310e+01
  -2.5163700e+01  -8.8709000e+00   4.8598610e+01
  -2.5674500e+01  -7.6510000e+00   4.7923010e+01
  -2.5619600e+01  -7.6341000e+00   4.6647610e+01
  -2.6121000e+01  -6.6887000e+00   4.8690310e+01
  -2.3640600e+01  -1.0954600e+01   4.3517910e+01
  -2.3290900e+01  -1.1833900e+01   4.5757010e+01
  -2.3111100e+01  -1.1900500e+01   4.4358510e+01
  -2.2702400e+01  -1.2898300e+01   4.6399910e+01
  -2.2526600e+01  -1.2910700e+01   4.5056710e+01
  -2.4024200e+01  -1.0982700e+01   4.7983710e+01
  -2.4093600e+01  -1.1120600e+01   4.9375810e+01
  -2.3560500e+01  -1.2208900e+01   4.9939110e+01
  -2.3421100e+01  -1.1877300e+01   4.7142510e+01
  -2.3441600e+01  -1.2136000e+01   4.8586210e+01
  -2.4752500e+01  -9.0242000e+00   4.2996210e+01
  -2.4981000e+01  -8.7126000e+00   4.4359710e+01
  -2.4307800e+01  -9.8877000e+00   4.3940910e+01
  -2.4494500e+01  -9.7022000e+00   4.5248810e+01
  -2.3826500e+01  -1.0835000e+01   4.4966510e+01
  -2.4664500e+01  -9.5561000e+00   4.6423510e+01
  -2.5145900e+01  -8.6977000e+00   4.7215210e+01
  -2.4655000e+01  -9.9890000e+00   4.9056510e+01
  -2.4012500e+01  -1.0738300e+01   4.6459310e+01
  -2.4596100e+01  -9.8807000e+00   4.7682410e+01
  -2.9148600e+01   1.7336000e+00   3.6984710e+01
  -2.9110300e+01   1.6662000e+00   3.8306610e+01
  -2.8826500e+01   5.5250000e-01   3.7293810e+01
  -2.8679000e+01   1.0670000e-01   3.8552310e+01
  -2.8425700e+01  -7.3620000e-01   3.7459110e+01
  -2.8889800e+01   1.1185000e+00   4.0622410e+01
  -2.8922900e+01   1.5367000e+00   4.1905610e+01
  -2.8519700e+01  -2.9120000e-01   4.0073310e+01
  -2.8882300e+01   9.1320000e-01   3.9410010e+01
  -2.8596800e+01   1.9170000e-01   4.1518210e+01
  -2.9689100e+01   4.2604000e+00   3.8003510e+01
  -2.9689600e+01   4.5889000e+00   3.9332810e+01
  -2.9668300e+01   3.9579000e+00   3.6669110e+01
  -2.9437900e+01   3.1802000e+00   3.8850810e+01
  -2.9424400e+01   2.9120000e+00   3.7583510e+01
  -2.9449900e+01   3.5594000e+00   4.0188110e+01
  -2.9411000e+01   3.8698000e+00   4.1549010e+01
  -2.9187600e+01   2.1914000e+00   3.9636310e+01
  -2.9183900e+01   2.4818000e+00   4.0939910e+01
  -2.9178600e+01   2.8528000e+00   4.2206010e+01
  -2.7474300e+01  -3.2772000e+00   3.7747210e+01
  -2.7561600e+01  -3.0150000e+00   4.0079810e+01
  -2.8279600e+01  -1.1332000e+00   3.8836810e+01
  -2.7804700e+01  -2.4478000e+00   3.8888210e+01
  -2.7984900e+01  -1.9874000e+00   3.7639910e+01
  -2.7266600e+01  -3.7797000e+00   3.8925410e+01
  -1.7415500e+01   2.5137000e+00   3.7716410e+01
  -1.7803700e+01   3.7834000e+00   3.7631210e+01
  -1.7911900e+01   4.4721000e+00   3.8921810e+01
  -1.7572200e+01   3.1964000e+00   3.8976310e+01
  -2.7760800e+01  -2.3978000e+00   4.1287610e+01
  -2.7913200e+01  -1.8486000e+00   4.2526610e+01
  -2.8317200e+01  -5.5130000e-01   4.2670910e+01
  -2.8061300e+01  -1.6754000e+00   4.0082110e+01
  -2.8219600e+01  -1.0791000e+00   4.1316910e+01
  -2.7438200e+01  -3.1768000e+00   4.2478210e+01
  -2.7267200e+01  -3.6924000e+00   4.1284410e+01
  -1.7416900e+01   3.3817000e+00   4.1590610e+01
  -1.7658600e+01   3.8891000e+00   4.0233710e+01
  -1.7706700e+01   4.6441000e+00   4.1453610e+01
  -2.8975200e+01   2.1833000e+00   4.3186110e+01
  -2.9021500e+01   2.8797000e+00   4.4283110e+01
  -2.9278900e+01   3.8381000e+00   4.3104110e+01
  -2.8988000e+01   3.3045000e+00   4.5634210e+01
  -2.9215800e+01   4.2168000e+00   4.4473110e+01
  -2.8490500e+01   6.1130000e-01   4.5288010e+01
  -2.8412400e+01   2.7400000e-02   4.3996810e+01
  -2.8669500e+01   7.6790000e-01   4.2903910e+01
  -2.8771000e+01   1.9832000e+00   4.5449210e+01
  -2.8736100e+01   1.4080000e+00   4.4203310e+01
  -2.8774100e+01   2.4746000e+00   4.6818910e+01
  -2.8773300e+01   3.0193000e+00   4.8165010e+01
  -2.9145800e+01   4.6043000e+00   4.5841510e+01
  -2.8960000e+01   3.8030000e+00   4.7001610e+01
  -2.8936200e+01   4.4432000e+00   4.8286910e+01
  -2.8543000e+01   1.1662000e+00   4.6603110e+01
  -2.8336400e+01   7.5900000e-01   4.9174610e+01
  -2.8568400e+01   1.6585000e+00   4.8003010e+01
  -2.8564700e+01   2.0952000e+00   4.9340810e+01
  -2.8740800e+01   3.4212000e+00   4.9462910e+01
  -2.8036300e+01  -1.3133000e+00   4.3817510e+01
  -2.7742400e+01  -2.1031000e+00   4.4929310e+01
  -2.7737100e+01  -1.8430000e+00   4.8473810e+01
  -2.7871500e+01  -1.5537000e+00   4.6188210e+01
  -2.7844400e+01  -1.2958000e+00   4.9649010e+01
  -2.8147400e+01  -7.5030000e-01   4.5100610e+01
  -2.8243700e+01  -1.8510000e-01   4.6383110e+01
  -2.8320800e+01   3.6480000e-01   4.7709310e+01
  -2.7988500e+01  -9.9140000e-01   4.7450310e+01
  -2.8084500e+01  -4.5470000e-01   4.8755110e+01
  -2.7287000e+01  -3.4438000e+00   4.4848010e+01
  -2.7115400e+01  -3.9652000e+00   4.3668010e+01
  -2.7094700e+01  -3.9654000e+00   4.9634810e+01
  -2.7174400e+01  -3.7169000e+00   4.7196510e+01
  -2.7349700e+01  -3.1596000e+00   4.8409210e+01
  -2.7599900e+01  -2.6450000e+00   4.3685610e+01
  -1.7466700e+01   4.2776000e+00   4.2957210e+01
  -1.7316000e+01   4.6824000e+00   4.4459010e+01
  -2.7447600e+01  -2.9134000e+00   4.6043410e+01
  -2.7597800e+01  -2.3728000e+00   4.7253410e+01
  -2.7488500e+01  -2.6421000e+00   4.9628510e+01
  -1.4376100e+01  -4.4372000e+00   4.0376710e+01
  -1.3676800e+01  -5.4325000e+00   3.9544110e+01
  -1.3596100e+01  -5.2739000e+00   3.6712710e+01
  -1.3646500e+01  -5.3683000e+00   3.8055410e+01
  -1.3009800e+01  -6.2578000e+00   3.8731110e+01
  -1.4372800e+01  -4.4490000e+00   4.1825410e+01
  -1.3736900e+01  -5.4626000e+00   4.2206610e+01
  -1.3025400e+01  -6.4465000e+00   4.1583210e+01
  -1.3682700e+01  -5.5171000e+00   4.0862310e+01
  -1.3265700e+01  -6.1294000e+00   4.3128410e+01
  -1.4958400e+01  -3.2110000e+00   3.6762310e+01
  -1.5479500e+01  -2.3586000e+00   3.8992810e+01
  -1.4322000e+01  -4.3163000e+00   3.7427710e+01
  -1.4947200e+01  -3.3479000e+00   3.8212110e+01
  -1.4343900e+01  -4.4142000e+00   3.8887610e+01
  -1.5447000e+01  -2.4477000e+00   4.0486010e+01
  -1.5523000e+01  -2.2251000e+00   4.2070010e+01
  -1.4972000e+01  -3.3848000e+00   4.1255110e+01
  -1.4891300e+01  -3.4850000e+00   4.2680310e+01
  -1.4942200e+01  -3.4273000e+00   3.9703810e+01
  -1.6688600e+01   4.9910000e-01   3.6576110e+01
  -1.6980800e+01   1.2474000e+00   3.7782610e+01
  -1.6630600e+01   6.3160000e-01   4.1688110e+01
  -1.6777600e+01   7.3450000e-01   3.9119810e+01
  -1.6892900e+01   1.2311000e+00   4.0396810e+01
  -1.7190100e+01   1.9426000e+00   3.9067210e+01
  -1.7314300e+01   2.5891000e+00   4.0327910e+01
  -1.7180900e+01   2.8638000e+00   4.2774810e+01
  -1.6794900e+01   1.4159000e+00   4.2844910e+01
  -1.7049800e+01   2.0122000e+00   4.1598310e+01
  -1.6109900e+01  -8.9470000e-01   3.6736810e+01
  -1.5521800e+01  -2.2120000e+00   3.7565010e+01
  -1.5917600e+01  -1.3713000e+00   4.1037010e+01
  -1.5989600e+01  -1.2461000e+00   3.8211610e+01
  -1.5941300e+01  -1.3696000e+00   3.9733410e+01
  -1.6360900e+01  -3.7470000e-01   3.9156710e+01
  -1.6498400e+01  -3.0700000e-02   3.7830610e+01
  -1.6423000e+01  -1.2440000e-01   4.0523610e+01
  -1.6399500e+01   1.8120000e-01   4.3069310e+01
  -1.6160700e+01  -6.7770000e-01   4.2011510e+01
  -7.1813000e+00  -1.0949400e+01   3.6836610e+01
  -7.3122000e+00  -1.1322200e+01   3.9314910e+01
  -6.7845000e+00  -1.1846900e+01   4.0505510e+01
  -7.9483000e+00  -1.1132800e+01   4.0608610e+01
  -7.3776000e+00  -1.1694900e+01   4.1853310e+01
  -7.8433000e+00  -1.0799800e+01   3.8123810e+01
  -8.4803000e+00  -1.0590800e+01   3.9398310e+01
  -9.1182000e+00  -1.0557200e+01   4.2964110e+01
  -8.4903000e+00  -1.0924300e+01   4.1882710e+01
  -9.0843000e+00  -1.0333300e+01   4.0643610e+01
  -4.8806000e+00  -1.2536200e+01   3.8975210e+01
  -4.0364000e+00  -1.2614000e+01   3.7700410e+01
  -5.5741000e+00  -1.2470900e+01   4.0302510e+01
  -6.1848000e+00  -1.2378500e+01   4.1646310e+01
  -6.7017000e+00  -1.2266400e+01   4.2977910e+01
  -4.6279000e+00  -1.2125600e+01   3.6609310e+01
  -5.9437000e+00  -1.1567300e+01   3.6715210e+01
  -5.3778000e+00  -1.2086500e+01   3.7838110e+01
  -6.6413000e+00  -1.1481700e+01   3.7998310e+01
  -6.1229000e+00  -1.1970900e+01   3.9154910e+01
  -1.0664900e+01  -8.5794000e+00   3.7241810e+01
  -1.1272800e+01  -8.1883000e+00   3.8484510e+01
  -1.2759500e+01  -6.4204000e+00   3.7295710e+01
  -1.1740500e+01  -7.5671000e+00   3.7310110e+01
  -1.2242300e+01  -7.1776000e+00   3.8553510e+01
  -9.0261000e+00  -1.0037500e+01   3.8251510e+01
  -8.3806000e+00  -1.0251500e+01   3.6977610e+01
  -9.5402000e+00  -9.4704000e+00   3.7113510e+01
  -1.0176600e+01  -9.1680000e+00   3.8366210e+01
  -9.6501000e+00  -9.7624000e+00   3.9482710e+01
  -1.1876200e+01  -7.7017000e+00   3.9750410e+01
  -1.1659300e+01  -8.0948000e+00   4.2167510e+01
  -1.2843300e+01  -6.5882000e+00   4.0074310e+01
  -1.2231800e+01  -7.3960000e+00   4.1097810e+01
  -1.2482000e+01  -7.1524000e+00   4.2622910e+01
  -1.0220700e+01  -9.4174000e+00   4.0676910e+01
  -9.6409000e+00  -1.0016200e+01   4.1820710e+01
  -1.0154800e+01  -9.6632000e+00   4.3082910e+01
  -1.0690700e+01  -9.0809000e+00   4.1901710e+01
  -1.0786900e+01  -8.7837000e+00   3.9586310e+01
  -1.1281800e+01  -8.4130000e+00   4.0825310e+01
  -1.5223600e+01  -2.6312000e+00   4.4787910e+01
  -1.5381200e+01  -2.4314000e+00   4.3514410e+01
  -1.5873000e+01  -1.2703000e+00   4.3220210e+01
  -1.5300800e+01  -2.2832000e+00   4.6116310e+01
  -1.5716600e+01  -1.4382000e+00   4.4845610e+01
  -1.4184900e+01  -4.6730000e+00   4.4848810e+01
  -1.4156200e+01  -4.7792000e+00   4.3328110e+01
  -1.4739600e+01  -3.6967000e+00   4.4035710e+01
  -1.4752900e+01  -3.5632000e+00   4.5544810e+01
  -1.4223200e+01  -4.5476000e+00   4.6297010e+01
  -1.5331500e+01  -2.0790000e+00   4.7632110e+01
  -1.5197300e+01  -2.3741000e+00   4.9227910e+01
  -1.5793200e+01  -7.5390000e-01   4.7707910e+01
  -1.5584300e+01  -1.2631000e+00   4.8877910e+01
  -1.5740700e+01  -1.1104000e+00   4.6375310e+01
  -1.4357500e+01  -4.2821000e+00   4.7547110e+01
  -1.4272800e+01  -4.4550000e+00   4.8758110e+01
  -1.4680400e+01  -3.7146000e+00   4.9907210e+01
  -1.4864600e+01  -3.2572000e+00   4.6928310e+01
  -1.4847300e+01  -3.2621000e+00   4.8394110e+01
  -1.6898100e+01   2.1215000e+00   4.3865410e+01
  -1.6816300e+01   2.2924000e+00   4.5094810e+01
  -1.6722900e+01   2.5186000e+00   4.6429910e+01
  -1.6642200e+01   2.8335000e+00   4.7782310e+01
  -1.6553800e+01   3.1941000e+00   4.9137210e+01
  -1.7167300e+01   3.4196000e+00   4.4083010e+01
  -1.7020300e+01   3.6066000e+00   4.5462610e+01
  -1.6882000e+01   3.8780000e+00   4.6848410e+01
  -1.6729500e+01   4.1932000e+00   4.8237010e+01
  -1.6573200e+01   4.5370000e+00   4.9638710e+01
  -1.6141800e+01  -3.7120000e-01   4.4194710e+01
  -1.6129300e+01  -1.1860000e-01   4.5479010e+01
  -1.5891700e+01  -2.6530000e-01   4.9520310e+01
  -1.6146100e+01   2.2030000e-01   4.6841710e+01
  -1.6109100e+01   4.3320000e-01   4.8341610e+01
  -1.6535600e+01   9.3500000e-01   4.4403310e+01
  -1.6480700e+01   1.1947000e+00   4.5861510e+01
  -1.6425300e+01   1.4634000e+00   4.7324510e+01
  -1.6384200e+01   1.7965000e+00   4.8686510e+01
  -1.6168500e+01   9.5660000e-01   4.9779510e+01
  -9.8534000e+00  -1.0028600e+01   4.4250410e+01
  -9.1447000e+00  -1.0783400e+01   4.5316410e+01
  -9.4013000e+00  -1.0697600e+01   4.6611710e+01
  -9.6478000e+00  -1.0649600e+01   4.7939910e+01
  -9.9644000e+00  -1.0574400e+01   4.9166810e+01
  -1.0137000e+01  -9.8807000e+00   4.5522810e+01
  -1.0906300e+01  -9.0068000e+00   4.4471310e+01
  -1.0972000e+01  -9.5120000e+00   4.9418110e+01
  -1.0358300e+01  -9.7957000e+00   4.6874510e+01
  -1.0620700e+01  -9.6925000e+00   4.8204410e+01
  -8.0687000e+00  -1.1599300e+01   4.4825910e+01
  -7.0684000e+00  -1.2229200e+01   4.4305910e+01
  -7.3038000e+00  -1.2291800e+01   4.5754610e+01
  -7.6608000e+00  -1.2272700e+01   4.7132610e+01
  -8.0355000e+00  -1.2246100e+01   4.8555810e+01
  -7.9056000e+00  -1.1514000e+01   4.3218810e+01
  -8.8121000e+00  -1.0921900e+01   4.4069810e+01
  -8.3815000e+00  -1.1541700e+01   4.6222910e+01
  -8.9739000e+00  -1.1536300e+01   4.9148510e+01
  -8.6904000e+00  -1.1479600e+01   4.7643110e+01
  -1.1899700e+01  -7.9355000e+00   4.5003810e+01
  -1.1833800e+01  -7.9592000e+00   4.3653910e+01
  -1.1047700e+01  -8.7993000e+00   4.3179810e+01
  -1.1766100e+01  -8.1906000e+00   4.6405510e+01
  -1.1038400e+01  -8.9788000e+00   4.5816610e+01
  -1.2255000e+01  -7.6448000e+00   4.7579210e+01
  -1.2402700e+01  -7.5778000e+00   4.9018010e+01
  -1.1255200e+01  -8.8600000e+00   4.7306710e+01
  -1.1599800e+01  -8.5813000e+00   4.8533810e+01
  -1.1733300e+01  -8.6377000e+00   4.9934710e+01
  -1.3528300e+01  -5.7358000e+00   4.4360410e+01
  -1.3598600e+01  -5.6125000e+00   4.5851310e+01
  -1.2652500e+01  -6.9803000e+00   4.4052610e+01
  -1.2915300e+01  -6.6324000e+00   4.5253710e+01
  -1.2449100e+01  -7.2927000e+00   4.6158510e+01
  -1.3713500e+01  -5.4389000e+00   4.7415710e+01
  -1.4024500e+01  -5.0516000e+00   4.9912010e+01
  -1.3644000e+01  -5.6167000e+00   4.8769810e+01
  -1.3185500e+01  -6.4863000e+00   4.9662310e+01
  -1.3002000e+01  -6.6182000e+00   4.8186810e+01
  -1.3057400e+01  -6.4562000e+00   4.6836010e+01
  -2.7475300e+01  -2.3741000e+00   5.1878610e+01
  -2.7299000e+01  -3.2112000e+00   5.0835110e+01
  -2.6909500e+01  -4.5420000e+00   5.0847710e+01
  -2.7092600e+01  -3.7884000e+00   5.2092710e+01
  -2.6728100e+01  -5.0595000e+00   5.2123910e+01
  -2.7244800e+01  -2.9141000e+00   5.3076110e+01
  -2.6983800e+01  -3.3685000e+00   5.4236910e+01
  -2.6836100e+01  -4.3524000e+00   5.3432610e+01
  -2.6627900e+01  -4.2980000e+00   5.4948510e+01
  -2.6855700e+01  -2.8377000e+00   5.5407810e+01
  -2.7854100e+01  -2.5340000e-01   5.2857510e+01
  -2.8073800e+01  -1.7480000e-01   5.0314510e+01
  -2.7677500e+01  -1.7951000e+00   5.0730810e+01
  -2.7842300e+01  -8.9080000e-01   5.1623410e+01
  -2.7585300e+01  -1.5430000e+00   5.2905410e+01
  -2.7554300e+01  -7.9940000e-01   5.4118110e+01
  -2.7287400e+01  -2.1089000e+00   5.4171010e+01
  -2.7129600e+01  -1.5092000e+00   5.5323810e+01
  -2.6552500e+01  -2.2664000e+00   5.6538210e+01
  -2.6914600e+01  -8.3040000e-01   5.6266510e+01
  -2.8350100e+01   1.2876000e+00   5.0514110e+01
  -2.8546700e+01   2.6441000e+00   5.0688410e+01
  -2.8127800e+01   4.7410000e-01   5.1548610e+01
  -2.8338400e+01   1.9725000e+00   5.1926210e+01
  -2.8087500e+01   9.6440000e-01   5.2726010e+01
  -2.8522600e+01   3.4209000e+00   5.1909710e+01
  -2.8703700e+01   4.0474000e+00   5.0725410e+01
  -2.8432100e+01   4.3070000e+00   5.3216210e+01
  -2.8309900e+01   2.9364000e+00   5.3104210e+01
  -2.8151200e+01   3.8366000e+00   5.4419710e+01
  -2.8073200e+01   1.7566000e+00   5.3601910e+01
  -2.7796600e+01   5.5510000e-01   5.4079010e+01
  -2.7405200e+01  -5.4800000e-02   5.5235010e+01
  -2.7656600e+01   1.4913000e+00   5.5139110e+01
  -2.7197800e+01   7.8090000e-01   5.6171310e+01
  -2.8000800e+01   2.5889000e+00   5.4435810e+01
  -2.7723800e+01   3.0184000e+00   5.5553010e+01
  -2.7852700e+01   4.4506000e+00   5.5644910e+01
  -2.7295000e+01   3.5536000e+00   5.6640110e+01
  -2.7260900e+01   2.1294000e+00   5.6396510e+01
  -2.4651700e+01  -1.0224700e+01   5.0428410e+01
  -2.4483600e+01  -1.0774100e+01   5.1833810e+01
  -2.4528800e+01  -1.0363000e+01   5.5658710e+01
  -2.4811800e+01  -1.0156900e+01   5.3063910e+01
  -2.4769200e+01  -1.0123900e+01   5.4550810e+01
  -2.5031400e+01  -9.5811000e+00   5.1587110e+01
  -2.5192100e+01  -9.0404000e+00   5.0117110e+01
  -2.5331800e+01  -8.9454000e+00   5.2798310e+01
  -2.5225200e+01  -9.0852000e+00   5.4201710e+01
  -2.5058400e+01  -9.0103000e+00   5.5629610e+01
  -2.3716200e+01  -1.2242700e+01   5.1590510e+01
  -2.3501000e+01  -1.2829800e+01   5.2838310e+01
  -2.3429600e+01  -1.2879400e+01   5.5197310e+01
  -2.3823800e+01  -1.2253700e+01   5.4052210e+01
  -2.3452800e+01  -1.2388400e+01   5.6320810e+01
  -2.4146700e+01  -1.1576200e+01   5.2792410e+01
  -2.4104800e+01  -1.1356600e+01   5.0748710e+01
  -2.4372100e+01  -1.1102900e+01   5.3995710e+01
  -2.4054700e+01  -1.1574900e+01   5.5268410e+01
  -2.3958600e+01  -1.1142300e+01   5.6518710e+01
  -2.6082000e+01  -6.7678000e+00   5.3913610e+01
  -2.6180300e+01  -6.6389000e+00   4.9968010e+01
  -2.6506400e+01  -5.5710000e+00   5.3334110e+01
  -2.6303700e+01  -6.3627000e+00   5.2425710e+01
  -2.6496800e+01  -5.8151000e+00   5.0994210e+01
  -2.5668000e+01  -8.0006000e+00   5.3726910e+01
  -2.5537400e+01  -8.3917000e+00   5.1540610e+01
  -2.5715200e+01  -7.8531000e+00   5.0439110e+01
  -2.6059600e+01  -7.0374000e+00   5.1350410e+01
  -2.5866400e+01  -7.5819000e+00   5.2604810e+01
  -2.6389600e+01  -5.5100000e+00   5.4539510e+01
  -2.5945600e+01  -6.5830000e+00   5.5318010e+01
  -2.6534100e+01   4.7153000e+00   5.6660810e+01
  -2.6187100e+01  -5.2553000e+00   5.5814910e+01
  -2.6412900e+01  -3.8418000e+00   5.6132710e+01
  -2.5643300e+01  -6.2376000e+00   5.6555110e+01
  -2.5586700e+01  -7.8701000e+00   5.4955810e+01
  -2.5395400e+01  -7.5889000e+00   5.6151910e+01
  -2.5293100e+01   4.3703000e+00   5.6661110e+01
  -2.3875300e+01   4.5658000e+00   5.6660910e+01
  -2.2350100e+01   4.4984000e+00   5.6661010e+01
  -2.5987800e+01  -4.5379000e+00   5.6670010e+01
  -2.6157100e+01  -3.6450000e+00   5.6669210e+01
  -2.6493600e+01  -2.0633000e+00   5.6667610e+01
  -2.6417600e+01  -2.5315000e+00   5.6668010e+01
  -2.6447400e+01  -2.2638000e+00   5.6667810e+01
  -2.5880100e+01  -4.9493000e+00   5.6670510e+01
  -2.3965700e+01  -5.1492000e+00   5.6670710e+01
  -2.5652500e+01  -2.0197000e+00   5.6667510e+01
  -2.5085800e+01  -4.4663000e+00   5.6670010e+01
  -2.4605000e+01  -3.1666000e+00   5.6668710e+01
  -2.5179800e+01  -7.3688000e+00   5.6672910e+01
  -2.4955800e+01  -8.2415000e+00   5.6673710e+01
  -2.5690400e+01  -5.7978000e+00   5.6671310e+01
  -2.5527200e+01  -6.3811000e+00   5.6671910e+01
  -2.5565300e+01  -6.1888000e+00   5.6671710e+01
  -2.4450500e+01  -9.7843000e+00   5.6675310e+01
  -2.4440100e+01  -9.8103000e+00   5.6675310e+01
  -2.4452100e+01  -9.7800000e+00   5.6675310e+01
  -2.4123800e+01  -7.9435000e+00   5.6673510e+01
  -2.4838700e+01  -8.5538000e+00   5.6674110e+01
  -2.7056200e+01   1.8856000e+00   5.6663610e+01
  -2.6925100e+01   1.0249000e+00   5.6664510e+01
  -2.6640200e+01  -9.2370000e-01   5.6666410e+01
  -2.6865500e+01   3.7850000e-01   5.6665110e+01
  -2.6763400e+01  -3.3320000e-01   5.6665810e+01
  -2.7277800e+01   3.5658000e+00   5.6661910e+01
  -2.7314600e+01   3.8746000e+00   5.6661610e+01
  -2.7275300e+01   3.5288000e+00   5.6662010e+01
  -2.7086300e+01   2.2700000e+00   5.6663210e+01
  -2.6572000e+01   3.3050000e+00   5.6662210e+01
  -2.5792200e+01   7.5560000e-01   5.6664810e+01
  -2.4550200e+01   1.4000000e-02   5.6665510e+01
  -2.4046500e+01  -1.9561000e+00   5.6667510e+01
  -2.5672900e+01  -5.8370000e-01   5.6666110e+01
  -2.4657300e+01  -1.0432000e+00   5.6666610e+01
  -2.5481100e+01   3.0830000e+00   5.6662410e+01
  -2.4469900e+01   3.3944000e+00   5.6662110e+01
  -2.5004500e+01   2.2004000e+00   5.6663310e+01
  -2.6138300e+01   2.0997000e+00   5.6663410e+01
  -2.4339300e+01   1.2307000e+00   5.6664310e+01
  -2.3120300e+01  -1.0561300e+01   5.6676110e+01
  -2.3897900e+01  -1.1038600e+01   5.6676510e+01
  -2.3131100e+01  -1.2684500e+01   5.6678210e+01
  -2.3808500e+01  -1.1266800e+01   5.6676810e+01
  -2.3350100e+01  -1.2192100e+01   5.6677710e+01
  -2.2890600e+01  -5.4476000e+00   5.6671010e+01
  -2.2191200e+01  -5.0490000e+00   5.6670610e+01
  -2.3737800e+01  -6.4924000e+00   5.6672010e+01
  -2.3396800e+01  -9.0783000e+00   5.6674610e+01
  -2.2672400e+01  -7.5277000e+00   5.6673010e+01
  -2.1914000e+01  -9.9304000e+00   5.6675410e+01
  -2.0790900e+01  -9.4613000e+00   5.6675010e+01
  -2.2127300e+01  -1.2674400e+01   5.6678210e+01
  -2.0871000e+01  -1.0438800e+01   5.6676010e+01
  -2.1681700e+01  -1.1361200e+01   5.6676910e+01
  -2.0786900e+01  -6.1548000e+00   5.6671710e+01
  -2.1062000e+01  -4.9685000e+00   5.6670510e+01
  -2.2040200e+01  -6.1807000e+00   5.6671710e+01
